Created as New Dataset,Sample 001 By IIST Date Wednesday, June 23 2021
cm-1,%T
4000.00,101.39
3999.00,101.39
3998.00,101.39
3997.00,101.39
3996.00,101.38
3995.00,101.38
3994.00,101.37
3993.00,101.37
3992.00,101.36
3991.00,101.36
3990.00,101.36
3989.00,101.37
3988.00,101.38
3987.00,101.38
3986.00,101.39
3985.00,101.39
3984.00,101.39
3983.00,101.39
3982.00,101.39
3981.00,101.38
3980.00,101.37
3979.00,101.37
3978.00,101.36
3977.00,101.36
3976.00,101.37
3975.00,101.37
3974.00,101.37
3973.00,101.37
3972.00,101.38
3971.00,101.39
3970.00,101.40
3969.00,101.41
3968.00,101.41
3967.00,101.40
3966.00,101.39
3965.00,101.38
3964.00,101.38
3963.00,101.37
3962.00,101.37
3961.00,101.37
3960.00,101.37
3959.00,101.37
3958.00,101.37
3957.00,101.37
3956.00,101.38
3955.00,101.38
3954.00,101.38
3953.00,101.37
3952.00,101.36
3951.00,101.36
3950.00,101.35
3949.00,101.35
3948.00,101.36
3947.00,101.37
3946.00,101.38
3945.00,101.39
3944.00,101.40
3943.00,101.41
3942.00,101.41
3941.00,101.41
3940.00,101.40
3939.00,101.40
3938.00,101.40
3937.00,101.40
3936.00,101.39
3935.00,101.38
3934.00,101.36
3933.00,101.35
3932.00,101.35
3931.00,101.35
3930.00,101.36
3929.00,101.37
3928.00,101.37
3927.00,101.38
3926.00,101.39
3925.00,101.39
3924.00,101.39
3923.00,101.38
3922.00,101.37
3921.00,101.37
3920.00,101.38
3919.00,101.38
3918.00,101.39
3917.00,101.39
3916.00,101.40
3915.00,101.40
3914.00,101.41
3913.00,101.42
3912.00,101.44
3911.00,101.45
3910.00,101.45
3909.00,101.44
3908.00,101.42
3907.00,101.39
3906.00,101.37
3905.00,101.35
3904.00,101.35
3903.00,101.35
3902.00,101.35
3901.00,101.36
3900.00,101.37
3899.00,101.38
3898.00,101.38
3897.00,101.38
3896.00,101.39
3895.00,101.40
3894.00,101.41
3893.00,101.42
3892.00,101.42
3891.00,101.42
3890.00,101.42
3889.00,101.41
3888.00,101.41
3887.00,101.43
3886.00,101.44
3885.00,101.43
3884.00,101.40
3883.00,101.38
3882.00,101.37
3881.00,101.39
3880.00,101.41
3879.00,101.42
3878.00,101.41
3877.00,101.41
3876.00,101.42
3875.00,101.44
3874.00,101.45
3873.00,101.44
3872.00,101.41
3871.00,101.41
3870.00,101.42
3869.00,101.42
3868.00,101.40
3867.00,101.39
3866.00,101.39
3865.00,101.41
3864.00,101.42
3863.00,101.43
3862.00,101.45
3861.00,101.46
3860.00,101.48
3859.00,101.49
3858.00,101.49
3857.00,101.47
3856.00,101.45
3855.00,101.45
3854.00,101.45
3853.00,101.43
3852.00,101.41
3851.00,101.40
3850.00,101.40
3849.00,101.42
3848.00,101.43
3847.00,101.44
3846.00,101.44
3845.00,101.45
3844.00,101.46
3843.00,101.46
3842.00,101.46
3841.00,101.45
3840.00,101.44
3839.00,101.45
3838.00,101.45
3837.00,101.44
3836.00,101.42
3835.00,101.40
3834.00,101.39
3833.00,101.40
3832.00,101.40
3831.00,101.41
3830.00,101.41
3829.00,101.40
3828.00,101.41
3827.00,101.44
3826.00,101.46
3825.00,101.45
3824.00,101.43
3823.00,101.42
3822.00,101.43
3821.00,101.45
3820.00,101.44
3819.00,101.42
3818.00,101.41
3817.00,101.42
3816.00,101.45
3815.00,101.46
3814.00,101.46
3813.00,101.46
3812.00,101.47
3811.00,101.48
3810.00,101.47
3809.00,101.47
3808.00,101.47
3807.00,101.48
3806.00,101.48
3805.00,101.45
3804.00,101.43
3803.00,101.42
3802.00,101.43
3801.00,101.43
3800.00,101.41
3799.00,101.39
3798.00,101.40
3797.00,101.43
3796.00,101.47
3795.00,101.48
3794.00,101.48
3793.00,101.47
3792.00,101.47
3791.00,101.46
3790.00,101.46
3789.00,101.47
3788.00,101.48
3787.00,101.49
3786.00,101.50
3785.00,101.50
3784.00,101.49
3783.00,101.48
3782.00,101.47
3781.00,101.48
3780.00,101.50
3779.00,101.50
3778.00,101.49
3777.00,101.48
3776.00,101.47
3775.00,101.47
3774.00,101.47
3773.00,101.45
3772.00,101.44
3771.00,101.45
3770.00,101.46
3769.00,101.46
3768.00,101.46
3767.00,101.46
3766.00,101.48
3765.00,101.49
3764.00,101.49
3763.00,101.48
3762.00,101.47
3761.00,101.47
3760.00,101.47
3759.00,101.47
3758.00,101.46
3757.00,101.47
3756.00,101.48
3755.00,101.49
3754.00,101.52
3753.00,101.55
3752.00,101.57
3751.00,101.56
3750.00,101.54
3749.00,101.52
3748.00,101.49
3747.00,101.45
3746.00,101.44
3745.00,101.47
3744.00,101.50
3743.00,101.51
3742.00,101.51
3741.00,101.52
3740.00,101.52
3739.00,101.51
3738.00,101.50
3737.00,101.50
3736.00,101.51
3735.00,101.51
3734.00,101.49
3733.00,101.49
3732.00,101.49
3731.00,101.51
3730.00,101.51
3729.00,101.51
3728.00,101.51
3727.00,101.52
3726.00,101.51
3725.00,101.50
3724.00,101.49
3723.00,101.48
3722.00,101.48
3721.00,101.49
3720.00,101.50
3719.00,101.51
3718.00,101.52
3717.00,101.53
3716.00,101.51
3715.00,101.50
3714.00,101.49
3713.00,101.49
3712.00,101.48
3711.00,101.47
3710.00,101.45
3709.00,101.44
3708.00,101.45
3707.00,101.47
3706.00,101.48
3705.00,101.49
3704.00,101.50
3703.00,101.50
3702.00,101.49
3701.00,101.47
3700.00,101.46
3699.00,101.44
3698.00,101.44
3697.00,101.45
3696.00,101.44
3695.00,101.44
3694.00,101.43
3693.00,101.42
3692.00,101.41
3691.00,101.41
3690.00,101.40
3689.00,101.40
3688.00,101.39
3687.00,101.39
3686.00,101.37
3685.00,101.36
3684.00,101.36
3683.00,101.35
3682.00,101.35
3681.00,101.36
3680.00,101.35
3679.00,101.33
3678.00,101.28
3677.00,101.25
3676.00,101.24
3675.00,101.24
3674.00,101.24
3673.00,101.23
3672.00,101.23
3671.00,101.24
3670.00,101.23
3669.00,101.20
3668.00,101.16
3667.00,101.14
3666.00,101.13
3665.00,101.14
3664.00,101.14
3663.00,101.13
3662.00,101.12
3661.00,101.10
3660.00,101.07
3659.00,101.05
3658.00,101.03
3657.00,101.01
3656.00,100.99
3655.00,100.95
3654.00,100.91
3653.00,100.87
3652.00,100.84
3651.00,100.82
3650.00,100.78
3649.00,100.72
3648.00,100.68
3647.00,100.66
3646.00,100.65
3645.00,100.64
3644.00,100.62
3643.00,100.60
3642.00,100.58
3641.00,100.55
3640.00,100.52
3639.00,100.49
3638.00,100.47
3637.00,100.44
3636.00,100.41
3635.00,100.37
3634.00,100.33
3633.00,100.28
3632.00,100.21
3631.00,100.15
3630.00,100.11
3629.00,100.07
3628.00,100.03
3627.00,100.00
3626.00,99.99
3625.00,99.98
3624.00,99.98
3623.00,99.95
3622.00,99.91
3621.00,99.85
3620.00,99.80
3619.00,99.74
3618.00,99.69
3617.00,99.64
3616.00,99.59
3615.00,99.56
3614.00,99.54
3613.00,99.52
3612.00,99.48
3611.00,99.44
3610.00,99.40
3609.00,99.37
3608.00,99.33
3607.00,99.30
3606.00,99.26
3605.00,99.24
3604.00,99.21
3603.00,99.18
3602.00,99.15
3601.00,99.10
3600.00,99.05
3599.00,99.00
3598.00,98.94
3597.00,98.89
3596.00,98.84
3595.00,98.81
3594.00,98.78
3593.00,98.76
3592.00,98.75
3591.00,98.73
3590.00,98.69
3589.00,98.64
3588.00,98.59
3587.00,98.54
3586.00,98.50
3585.00,98.47
3584.00,98.44
3583.00,98.41
3582.00,98.38
3581.00,98.35
3580.00,98.31
3579.00,98.27
3578.00,98.22
3577.00,98.17
3576.00,98.13
3575.00,98.09
3574.00,98.05
3573.00,98.01
3572.00,97.97
3571.00,97.93
3570.00,97.88
3569.00,97.83
3568.00,97.77
3567.00,97.72
3566.00,97.70
3565.00,97.68
3564.00,97.66
3563.00,97.63
3562.00,97.60
3561.00,97.56
3560.00,97.53
3559.00,97.50
3558.00,97.48
3557.00,97.45
3556.00,97.43
3555.00,97.40
3554.00,97.36
3553.00,97.32
3552.00,97.27
3551.00,97.22
3550.00,97.17
3549.00,97.12
3548.00,97.06
3547.00,97.00
3546.00,96.94
3545.00,96.89
3544.00,96.86
3543.00,96.84
3542.00,96.82
3541.00,96.78
3540.00,96.74
3539.00,96.69
3538.00,96.64
3537.00,96.60
3536.00,96.57
3535.00,96.54
3534.00,96.51
3533.00,96.48
3532.00,96.44
3531.00,96.39
3530.00,96.35
3529.00,96.31
3528.00,96.28
3527.00,96.25
3526.00,96.20
3525.00,96.15
3524.00,96.11
3523.00,96.07
3522.00,96.05
3521.00,96.02
3520.00,95.98
3519.00,95.93
3518.00,95.86
3517.00,95.80
3516.00,95.75
3515.00,95.71
3514.00,95.67
3513.00,95.63
3512.00,95.60
3511.00,95.58
3510.00,95.56
3509.00,95.52
3508.00,95.46
3507.00,95.39
3506.00,95.32
3505.00,95.28
3504.00,95.26
3503.00,95.25
3502.00,95.24
3501.00,95.22
3500.00,95.19
3499.00,95.14
3498.00,95.09
3497.00,95.04
3496.00,94.99
3495.00,94.95
3494.00,94.91
3493.00,94.88
3492.00,94.86
3491.00,94.82
3490.00,94.78
3489.00,94.74
3488.00,94.70
3487.00,94.67
3486.00,94.64
3485.00,94.62
3484.00,94.59
3483.00,94.54
3482.00,94.48
3481.00,94.41
3480.00,94.36
3479.00,94.32
3478.00,94.30
3477.00,94.28
3476.00,94.27
3475.00,94.25
3474.00,94.23
3473.00,94.20
3472.00,94.16
3471.00,94.11
3470.00,94.07
3469.00,94.02
3468.00,93.98
3467.00,93.94
3466.00,93.90
3465.00,93.86
3464.00,93.82
3463.00,93.78
3462.00,93.75
3461.00,93.72
3460.00,93.69
3459.00,93.66
3458.00,93.63
3457.00,93.59
3456.00,93.55
3455.00,93.51
3454.00,93.48
3453.00,93.45
3452.00,93.43
3451.00,93.41
3450.00,93.39
3449.00,93.36
3448.00,93.32
3447.00,93.29
3446.00,93.25
3445.00,93.22
3444.00,93.20
3443.00,93.17
3442.00,93.15
3441.00,93.12
3440.00,93.09
3439.00,93.07
3438.00,93.05
3437.00,93.02
3436.00,92.99
3435.00,92.96
3434.00,92.94
3433.00,92.91
3432.00,92.88
3431.00,92.86
3430.00,92.83
3429.00,92.80
3428.00,92.77
3427.00,92.75
3426.00,92.73
3425.00,92.71
3424.00,92.70
3423.00,92.69
3422.00,92.68
3421.00,92.66
3420.00,92.63
3419.00,92.61
3418.00,92.58
3417.00,92.55
3416.00,92.54
3415.00,92.53
3414.00,92.51
3413.00,92.50
3412.00,92.48
3411.00,92.45
3410.00,92.42
3409.00,92.39
3408.00,92.36
3407.00,92.34
3406.00,92.33
3405.00,92.32
3404.00,92.31
3403.00,92.30
3402.00,92.29
3401.00,92.27
3400.00,92.25
3399.00,92.23
3398.00,92.21
3397.00,92.18
3396.00,92.17
3395.00,92.15
3394.00,92.14
3393.00,92.13
3392.00,92.12
3391.00,92.11
3390.00,92.10
3389.00,92.08
3388.00,92.07
3387.00,92.07
3386.00,92.05
3385.00,92.04
3384.00,92.02
3383.00,92.00
3382.00,91.97
3381.00,91.96
3380.00,91.95
3379.00,91.94
3378.00,91.94
3377.00,91.94
3376.00,91.93
3375.00,91.93
3374.00,91.93
3373.00,91.92
3372.00,91.91
3371.00,91.90
3370.00,91.90
3369.00,91.89
3368.00,91.89
3367.00,91.89
3366.00,91.89
3365.00,91.89
3364.00,91.88
3363.00,91.88
3362.00,91.87
3361.00,91.87
3360.00,91.87
3359.00,91.86
3358.00,91.85
3357.00,91.83
3356.00,91.82
3355.00,91.82
3354.00,91.82
3353.00,91.82
3352.00,91.81
3351.00,91.81
3350.00,91.81
3349.00,91.80
3348.00,91.79
3347.00,91.79
3346.00,91.79
3345.00,91.80
3344.00,91.81
3343.00,91.81
3342.00,91.82
3341.00,91.81
3340.00,91.80
3339.00,91.79
3338.00,91.79
3337.00,91.80
3336.00,91.82
3335.00,91.83
3334.00,91.83
3333.00,91.82
3332.00,91.81
3331.00,91.80
3330.00,91.80
3329.00,91.81
3328.00,91.83
3327.00,91.85
3326.00,91.87
3325.00,91.88
3324.00,91.87
3323.00,91.87
3322.00,91.87
3321.00,91.87
3320.00,91.87
3319.00,91.87
3318.00,91.86
3317.00,91.86
3316.00,91.86
3315.00,91.86
3314.00,91.87
3313.00,91.87
3312.00,91.88
3311.00,91.90
3310.00,91.92
3309.00,91.94
3308.00,91.95
3307.00,91.95
3306.00,91.95
3305.00,91.95
3304.00,91.96
3303.00,91.97
3302.00,91.98
3301.00,92.00
3300.00,92.02
3299.00,92.03
3298.00,92.03
3297.00,92.03
3296.00,92.03
3295.00,92.04
3294.00,92.06
3293.00,92.08
3292.00,92.09
3291.00,92.10
3290.00,92.11
3289.00,92.12
3288.00,92.12
3287.00,92.13
3286.00,92.13
3285.00,92.14
3284.00,92.14
3283.00,92.15
3282.00,92.17
3281.00,92.19
3280.00,92.20
3279.00,92.22
3278.00,92.22
3277.00,92.23
3276.00,92.23
3275.00,92.24
3274.00,92.25
3273.00,92.26
3272.00,92.28
3271.00,92.30
3270.00,92.32
3269.00,92.35
3268.00,92.38
3267.00,92.40
3266.00,92.41
3265.00,92.40
3264.00,92.40
3263.00,92.40
3262.00,92.41
3261.00,92.43
3260.00,92.45
3259.00,92.47
3258.00,92.49
3257.00,92.50
3256.00,92.51
3255.00,92.52
3254.00,92.54
3253.00,92.55
3252.00,92.56
3251.00,92.57
3250.00,92.58
3249.00,92.60
3248.00,92.63
3247.00,92.67
3246.00,92.70
3245.00,92.72
3244.00,92.74
3243.00,92.76
3242.00,92.77
3241.00,92.79
3240.00,92.80
3239.00,92.81
3238.00,92.82
3237.00,92.84
3236.00,92.86
3235.00,92.88
3234.00,92.90
3233.00,92.93
3232.00,92.95
3231.00,92.98
3230.00,93.01
3229.00,93.02
3228.00,93.04
3227.00,93.05
3226.00,93.07
3225.00,93.09
3224.00,93.10
3223.00,93.11
3222.00,93.13
3221.00,93.15
3220.00,93.17
3219.00,93.20
3218.00,93.23
3217.00,93.25
3216.00,93.28
3215.00,93.31
3214.00,93.34
3213.00,93.37
3212.00,93.39
3211.00,93.41
3210.00,93.42
3209.00,93.44
3208.00,93.46
3207.00,93.49
3206.00,93.52
3205.00,93.54
3204.00,93.57
3203.00,93.59
3202.00,93.60
3201.00,93.62
3200.00,93.65
3199.00,93.68
3198.00,93.70
3197.00,93.72
3196.00,93.74
3195.00,93.75
3194.00,93.76
3193.00,93.77
3192.00,93.80
3191.00,93.85
3190.00,93.89
3189.00,93.93
3188.00,93.95
3187.00,93.96
3186.00,93.97
3185.00,93.99
3184.00,94.01
3183.00,94.03
3182.00,94.06
3181.00,94.10
3180.00,94.14
3179.00,94.17
3178.00,94.20
3177.00,94.22
3176.00,94.24
3175.00,94.27
3174.00,94.30
3173.00,94.32
3172.00,94.33
3171.00,94.35
3170.00,94.37
3169.00,94.40
3168.00,94.42
3167.00,94.45
3166.00,94.47
3165.00,94.49
3164.00,94.51
3163.00,94.52
3162.00,94.54
3161.00,94.55
3160.00,94.57
3159.00,94.60
3158.00,94.63
3157.00,94.65
3156.00,94.68
3155.00,94.69
3154.00,94.71
3153.00,94.73
3152.00,94.76
3151.00,94.80
3150.00,94.84
3149.00,94.86
3148.00,94.88
3147.00,94.90
3146.00,94.92
3145.00,94.95
3144.00,94.98
3143.00,95.01
3142.00,95.03
3141.00,95.05
3140.00,95.07
3139.00,95.08
3138.00,95.10
3137.00,95.13
3136.00,95.17
3135.00,95.20
3134.00,95.22
3133.00,95.24
3132.00,95.25
3131.00,95.26
3130.00,95.28
3129.00,95.31
3128.00,95.33
3127.00,95.35
3126.00,95.36
3125.00,95.36
3124.00,95.38
3123.00,95.41
3122.00,95.44
3121.00,95.47
3120.00,95.49
3119.00,95.50
3118.00,95.51
3117.00,95.53
3116.00,95.55
3115.00,95.58
3114.00,95.61
3113.00,95.63
3112.00,95.64
3111.00,95.66
3110.00,95.68
3109.00,95.70
3108.00,95.73
3107.00,95.75
3106.00,95.77
3105.00,95.79
3104.00,95.82
3103.00,95.85
3102.00,95.88
3101.00,95.90
3100.00,95.92
3099.00,95.93
3098.00,95.95
3097.00,95.96
3096.00,95.98
3095.00,95.99
3094.00,96.00
3093.00,96.01
3092.00,96.02
3091.00,96.05
3090.00,96.07
3089.00,96.10
3088.00,96.13
3087.00,96.15
3086.00,96.17
3085.00,96.18
3084.00,96.19
3083.00,96.20
3082.00,96.22
3081.00,96.25
3080.00,96.27
3079.00,96.30
3078.00,96.33
3077.00,96.36
3076.00,96.38
3075.00,96.41
3074.00,96.44
3073.00,96.45
3072.00,96.46
3071.00,96.46
3070.00,96.47
3069.00,96.49
3068.00,96.50
3067.00,96.52
3066.00,96.53
3065.00,96.54
3064.00,96.55
3063.00,96.56
3062.00,96.57
3061.00,96.58
3060.00,96.60
3059.00,96.63
3058.00,96.66
3057.00,96.69
3056.00,96.70
3055.00,96.71
3054.00,96.71
3053.00,96.71
3052.00,96.71
3051.00,96.72
3050.00,96.75
3049.00,96.77
3048.00,96.80
3047.00,96.83
3046.00,96.85
3045.00,96.86
3044.00,96.87
3043.00,96.88
3042.00,96.89
3041.00,96.90
3040.00,96.92
3039.00,96.94
3038.00,96.95
3037.00,96.96
3036.00,96.96
3035.00,96.97
3034.00,96.98
3033.00,96.99
3032.00,97.00
3031.00,97.02
3030.00,97.04
3029.00,97.05
3028.00,97.07
3027.00,97.08
3026.00,97.09
3025.00,97.10
3024.00,97.10
3023.00,97.11
3022.00,97.13
3021.00,97.15
3020.00,97.16
3019.00,97.17
3018.00,97.17
3017.00,97.17
3016.00,97.18
3015.00,97.18
3014.00,97.19
3013.00,97.21
3012.00,97.22
3011.00,97.24
3010.00,97.26
3009.00,97.27
3008.00,97.28
3007.00,97.28
3006.00,97.28
3005.00,97.27
3004.00,97.27
3003.00,97.27
3002.00,97.28
3001.00,97.28
3000.00,97.29
2999.00,97.30
2998.00,97.32
2997.00,97.35
2996.00,97.37
2995.00,97.38
2994.00,97.39
2993.00,97.40
2992.00,97.41
2991.00,97.41
2990.00,97.41
2989.00,97.40
2988.00,97.40
2987.00,97.40
2986.00,97.41
2985.00,97.42
2984.00,97.43
2983.00,97.43
2982.00,97.44
2981.00,97.44
2980.00,97.44
2979.00,97.43
2978.00,97.43
2977.00,97.43
2976.00,97.43
2975.00,97.43
2974.00,97.43
2973.00,97.44
2972.00,97.44
2971.00,97.43
2970.00,97.42
2969.00,97.42
2968.00,97.42
2967.00,97.42
2966.00,97.43
2965.00,97.44
2964.00,97.44
2963.00,97.45
2962.00,97.45
2961.00,97.46
2960.00,97.48
2959.00,97.49
2958.00,97.51
2957.00,97.53
2956.00,97.54
2955.00,97.56
2954.00,97.59
2953.00,97.61
2952.00,97.64
2951.00,97.66
2950.00,97.69
2949.00,97.72
2948.00,97.75
2947.00,97.76
2946.00,97.77
2945.00,97.77
2944.00,97.77
2943.00,97.77
2942.00,97.76
2941.00,97.77
2940.00,97.78
2939.00,97.80
2938.00,97.83
2937.00,97.85
2936.00,97.86
2935.00,97.88
2934.00,97.90
2933.00,97.92
2932.00,97.94
2931.00,97.95
2930.00,97.97
2929.00,97.98
2928.00,98.00
2927.00,98.02
2926.00,98.04
2925.00,98.06
2924.00,98.07
2923.00,98.08
2922.00,98.10
2921.00,98.13
2920.00,98.15
2919.00,98.17
2918.00,98.18
2917.00,98.18
2916.00,98.19
2915.00,98.20
2914.00,98.22
2913.00,98.24
2912.00,98.25
2911.00,98.27
2910.00,98.29
2909.00,98.30
2908.00,98.31
2907.00,98.33
2906.00,98.34
2905.00,98.37
2904.00,98.39
2903.00,98.41
2902.00,98.42
2901.00,98.43
2900.00,98.43
2899.00,98.44
2898.00,98.46
2897.00,98.49
2896.00,98.51
2895.00,98.53
2894.00,98.54
2893.00,98.55
2892.00,98.57
2891.00,98.59
2890.00,98.61
2889.00,98.62
2888.00,98.63
2887.00,98.65
2886.00,98.66
2885.00,98.68
2884.00,98.70
2883.00,98.71
2882.00,98.72
2881.00,98.73
2880.00,98.74
2879.00,98.76
2878.00,98.77
2877.00,98.78
2876.00,98.80
2875.00,98.81
2874.00,98.83
2873.00,98.84
2872.00,98.86
2871.00,98.88
2870.00,98.89
2869.00,98.90
2868.00,98.90
2867.00,98.91
2866.00,98.92
2865.00,98.93
2864.00,98.95
2863.00,98.96
2862.00,98.97
2861.00,98.98
2860.00,99.00
2859.00,99.01
2858.00,99.03
2857.00,99.06
2856.00,99.08
2855.00,99.10
2854.00,99.11
2853.00,99.13
2852.00,99.14
2851.00,99.15
2850.00,99.16
2849.00,99.18
2848.00,99.18
2847.00,99.20
2846.00,99.21
2845.00,99.22
2844.00,99.24
2843.00,99.26
2842.00,99.28
2841.00,99.29
2840.00,99.31
2839.00,99.33
2838.00,99.34
2837.00,99.36
2836.00,99.37
2835.00,99.38
2834.00,99.39
2833.00,99.40
2832.00,99.42
2831.00,99.44
2830.00,99.45
2829.00,99.46
2828.00,99.47
2827.00,99.49
2826.00,99.50
2825.00,99.51
2824.00,99.52
2823.00,99.54
2822.00,99.55
2821.00,99.56
2820.00,99.58
2819.00,99.59
2818.00,99.60
2817.00,99.61
2816.00,99.62
2815.00,99.64
2814.00,99.65
2813.00,99.67
2812.00,99.68
2811.00,99.69
2810.00,99.71
2809.00,99.73
2808.00,99.75
2807.00,99.75
2806.00,99.76
2805.00,99.77
2804.00,99.78
2803.00,99.78
2802.00,99.79
2801.00,99.80
2800.00,99.81
2799.00,99.83
2798.00,99.84
2797.00,99.85
2796.00,99.86
2795.00,99.86
2794.00,99.87
2793.00,99.88
2792.00,99.88
2791.00,99.89
2790.00,99.89
2789.00,99.90
2788.00,99.92
2787.00,99.95
2786.00,99.97
2785.00,99.98
2784.00,99.98
2783.00,99.98
2782.00,99.98
2781.00,99.98
2780.00,99.99
2779.00,100.00
2778.00,100.00
2777.00,100.01
2776.00,100.01
2775.00,100.02
2774.00,100.03
2773.00,100.03
2772.00,100.02
2771.00,100.02
2770.00,100.03
2769.00,100.04
2768.00,100.06
2767.00,100.08
2766.00,100.09
2765.00,100.09
2764.00,100.10
2763.00,100.10
2762.00,100.11
2761.00,100.13
2760.00,100.14
2759.00,100.15
2758.00,100.15
2757.00,100.15
2756.00,100.14
2755.00,100.14
2754.00,100.16
2753.00,100.18
2752.00,100.20
2751.00,100.20
2750.00,100.21
2749.00,100.21
2748.00,100.22
2747.00,100.22
2746.00,100.22
2745.00,100.22
2744.00,100.23
2743.00,100.24
2742.00,100.24
2741.00,100.23
2740.00,100.23
2739.00,100.23
2738.00,100.23
2737.00,100.24
2736.00,100.24
2735.00,100.24
2734.00,100.24
2733.00,100.25
2732.00,100.27
2731.00,100.28
2730.00,100.30
2729.00,100.32
2728.00,100.32
2727.00,100.33
2726.00,100.33
2725.00,100.34
2724.00,100.35
2723.00,100.36
2722.00,100.37
2721.00,100.38
2720.00,100.37
2719.00,100.36
2718.00,100.35
2717.00,100.33
2716.00,100.32
2715.00,100.33
2714.00,100.34
2713.00,100.34
2712.00,100.34
2711.00,100.34
2710.00,100.34
2709.00,100.35
2708.00,100.37
2707.00,100.39
2706.00,100.41
2705.00,100.42
2704.00,100.42
2703.00,100.42
2702.00,100.41
2701.00,100.41
2700.00,100.40
2699.00,100.40
2698.00,100.40
2697.00,100.40
2696.00,100.41
2695.00,100.42
2694.00,100.43
2693.00,100.44
2692.00,100.45
2691.00,100.45
2690.00,100.46
2689.00,100.46
2688.00,100.45
2687.00,100.44
2686.00,100.43
2685.00,100.42
2684.00,100.42
2683.00,100.43
2682.00,100.44
2681.00,100.45
2680.00,100.45
2679.00,100.46
2678.00,100.46
2677.00,100.46
2676.00,100.46
2675.00,100.45
2674.00,100.46
2673.00,100.46
2672.00,100.47
2671.00,100.48
2670.00,100.48
2669.00,100.47
2668.00,100.47
2667.00,100.48
2666.00,100.48
2665.00,100.49
2664.00,100.49
2663.00,100.50
2662.00,100.50
2661.00,100.49
2660.00,100.48
2659.00,100.48
2658.00,100.49
2657.00,100.50
2656.00,100.50
2655.00,100.50
2654.00,100.49
2653.00,100.48
2652.00,100.48
2651.00,100.48
2650.00,100.48
2649.00,100.49
2648.00,100.48
2647.00,100.48
2646.00,100.47
2645.00,100.47
2644.00,100.47
2643.00,100.48
2642.00,100.49
2641.00,100.49
2640.00,100.50
2639.00,100.52
2638.00,100.53
2637.00,100.54
2636.00,100.54
2635.00,100.54
2634.00,100.53
2633.00,100.52
2632.00,100.52
2631.00,100.52
2630.00,100.51
2629.00,100.51
2628.00,100.50
2627.00,100.50
2626.00,100.51
2625.00,100.50
2624.00,100.50
2623.00,100.49
2622.00,100.49
2621.00,100.49
2620.00,100.49
2619.00,100.48
2618.00,100.47
2617.00,100.46
2616.00,100.46
2615.00,100.46
2614.00,100.46
2613.00,100.45
2612.00,100.46
2611.00,100.46
2610.00,100.46
2609.00,100.46
2608.00,100.45
2607.00,100.44
2606.00,100.44
2605.00,100.44
2604.00,100.43
2603.00,100.43
2602.00,100.43
2601.00,100.44
2600.00,100.44
2599.00,100.45
2598.00,100.47
2597.00,100.49
2596.00,100.50
2595.00,100.49
2594.00,100.47
2593.00,100.45
2592.00,100.43
2591.00,100.42
2590.00,100.42
2589.00,100.44
2588.00,100.46
2587.00,100.47
2586.00,100.45
2585.00,100.42
2584.00,100.39
2583.00,100.37
2582.00,100.37
2581.00,100.38
2580.00,100.39
2579.00,100.40
2578.00,100.41
2577.00,100.42
2576.00,100.42
2575.00,100.42
2574.00,100.42
2573.00,100.43
2572.00,100.42
2571.00,100.42
2570.00,100.41
2569.00,100.41
2568.00,100.41
2567.00,100.42
2566.00,100.43
2565.00,100.43
2564.00,100.42
2563.00,100.41
2562.00,100.41
2561.00,100.42
2560.00,100.42
2559.00,100.43
2558.00,100.45
2557.00,100.46
2556.00,100.47
2555.00,100.46
2554.00,100.46
2553.00,100.45
2552.00,100.45
2551.00,100.45
2550.00,100.45
2549.00,100.43
2548.00,100.42
2547.00,100.41
2546.00,100.41
2545.00,100.41
2544.00,100.40
2543.00,100.39
2542.00,100.38
2541.00,100.37
2540.00,100.37
2539.00,100.36
2538.00,100.35
2537.00,100.34
2536.00,100.33
2535.00,100.33
2534.00,100.33
2533.00,100.33
2532.00,100.32
2531.00,100.32
2530.00,100.31
2529.00,100.31
2528.00,100.30
2527.00,100.30
2526.00,100.29
2525.00,100.29
2524.00,100.29
2523.00,100.29
2522.00,100.29
2521.00,100.27
2520.00,100.24
2519.00,100.22
2518.00,100.21
2517.00,100.21
2516.00,100.20
2515.00,100.20
2514.00,100.19
2513.00,100.17
2512.00,100.15
2511.00,100.14
2510.00,100.14
2509.00,100.13
2508.00,100.11
2507.00,100.08
2506.00,100.06
2505.00,100.05
2504.00,100.06
2503.00,100.08
2502.00,100.09
2501.00,100.10
2500.00,100.10
2499.00,100.09
2498.00,100.07
2497.00,100.06
2496.00,100.04
2495.00,100.02
2494.00,100.00
2493.00,99.98
2492.00,99.98
2491.00,99.99
2490.00,100.00
2489.00,100.01
2488.00,100.03
2487.00,100.06
2486.00,100.09
2485.00,100.12
2484.00,100.13
2483.00,100.12
2482.00,100.12
2481.00,100.11
2480.00,100.12
2479.00,100.14
2478.00,100.14
2477.00,100.14
2476.00,100.13
2475.00,100.13
2474.00,100.15
2473.00,100.17
2472.00,100.19
2471.00,100.21
2470.00,100.24
2469.00,100.26
2468.00,100.28
2467.00,100.29
2466.00,100.30
2465.00,100.29
2464.00,100.27
2463.00,100.26
2462.00,100.26
2461.00,100.29
2460.00,100.33
2459.00,100.37
2458.00,100.40
2457.00,100.41
2456.00,100.42
2455.00,100.42
2454.00,100.43
2453.00,100.44
2452.00,100.45
2451.00,100.45
2450.00,100.45
2449.00,100.46
2448.00,100.48
2447.00,100.51
2446.00,100.53
2445.00,100.55
2444.00,100.56
2443.00,100.56
2442.00,100.57
2441.00,100.57
2440.00,100.59
2439.00,100.61
2438.00,100.63
2437.00,100.64
2436.00,100.64
2435.00,100.65
2434.00,100.65
2433.00,100.65
2432.00,100.65
2431.00,100.66
2430.00,100.68
2429.00,100.69
2428.00,100.68
2427.00,100.67
2426.00,100.66
2425.00,100.66
2424.00,100.67
2423.00,100.66
2422.00,100.64
2421.00,100.63
2420.00,100.64
2419.00,100.65
2418.00,100.67
2417.00,100.69
2416.00,100.69
2415.00,100.69
2414.00,100.71
2413.00,100.72
2412.00,100.74
2411.00,100.75
2410.00,100.75
2409.00,100.76
2408.00,100.77
2407.00,100.77
2406.00,100.78
2405.00,100.79
2404.00,100.78
2403.00,100.76
2402.00,100.75
2401.00,100.75
2400.00,100.75
2399.00,100.76
2398.00,100.77
2397.00,100.78
2396.00,100.78
2395.00,100.77
2394.00,100.77
2393.00,100.77
2392.00,100.77
2391.00,100.77
2390.00,100.78
2389.00,100.78
2388.00,100.80
2387.00,100.82
2386.00,100.85
2385.00,100.89
2384.00,100.94
2383.00,100.99
2382.00,101.02
2381.00,101.04
2380.00,101.04
2379.00,101.06
2378.00,101.09
2377.00,101.12
2376.00,101.13
2375.00,101.11
2374.00,101.09
2373.00,101.06
2372.00,101.06
2371.00,101.08
2370.00,101.13
2369.00,101.17
2368.00,101.16
2367.00,101.11
2366.00,101.04
2365.00,101.00
2364.00,101.00
2363.00,101.05
2362.00,101.12
2361.00,101.17
2360.00,101.16
2359.00,101.13
2358.00,101.10
2357.00,101.10
2356.00,101.12
2355.00,101.14
2354.00,101.14
2353.00,101.15
2352.00,101.15
2351.00,101.15
2350.00,101.15
2349.00,101.14
2348.00,101.14
2347.00,101.15
2346.00,101.18
2345.00,101.21
2344.00,101.22
2343.00,101.22
2342.00,101.20
2341.00,101.19
2340.00,101.18
2339.00,101.17
2338.00,101.17
2337.00,101.16
2336.00,101.15
2335.00,101.16
2334.00,101.19
2333.00,101.20
2332.00,101.20
2331.00,101.19
2330.00,101.18
2329.00,101.17
2328.00,101.16
2327.00,101.15
2326.00,101.15
2325.00,101.16
2324.00,101.16
2323.00,101.16
2322.00,101.14
2321.00,101.11
2320.00,101.06
2319.00,101.03
2318.00,101.04
2317.00,101.08
2316.00,101.13
2315.00,101.16
2314.00,101.18
2313.00,101.18
2312.00,101.18
2311.00,101.19
2310.00,101.20
2309.00,101.21
2308.00,101.20
2307.00,101.18
2306.00,101.15
2305.00,101.14
2304.00,101.14
2303.00,101.14
2302.00,101.13
2301.00,101.10
2300.00,101.07
2299.00,101.06
2298.00,101.08
2297.00,101.10
2296.00,101.12
2295.00,101.14
2294.00,101.12
2293.00,101.10
2292.00,101.07
2291.00,101.07
2290.00,101.09
2289.00,101.11
2288.00,101.11
2287.00,101.10
2286.00,101.08
2285.00,101.08
2284.00,101.10
2283.00,101.13
2282.00,101.13
2281.00,101.11
2280.00,101.09
2279.00,101.08
2278.00,101.08
2277.00,101.10
2276.00,101.11
2275.00,101.12
2274.00,101.12
2273.00,101.11
2272.00,101.10
2271.00,101.11
2270.00,101.13
2269.00,101.15
2268.00,101.15
2267.00,101.15
2266.00,101.15
2265.00,101.13
2264.00,101.12
2263.00,101.11
2262.00,101.11
2261.00,101.10
2260.00,101.09
2259.00,101.10
2258.00,101.12
2257.00,101.13
2256.00,101.11
2255.00,101.10
2254.00,101.09
2253.00,101.09
2252.00,101.10
2251.00,101.11
2250.00,101.12
2249.00,101.12
2248.00,101.12
2247.00,101.14
2246.00,101.16
2245.00,101.19
2244.00,101.22
2243.00,101.25
2242.00,101.26
2241.00,101.25
2240.00,101.24
2239.00,101.26
2238.00,101.28
2237.00,101.26
2236.00,101.21
2235.00,101.17
2234.00,101.15
2233.00,101.17
2232.00,101.18
2231.00,101.19
2230.00,101.19
2229.00,101.17
2228.00,101.16
2227.00,101.16
2226.00,101.17
2225.00,101.18
2224.00,101.17
2223.00,101.15
2222.00,101.14
2221.00,101.13
2220.00,101.14
2219.00,101.17
2218.00,101.20
2217.00,101.22
2216.00,101.23
2215.00,101.22
2214.00,101.21
2213.00,101.18
2212.00,101.15
2211.00,101.13
2210.00,101.14
2209.00,101.16
2208.00,101.19
2207.00,101.23
2206.00,101.25
2205.00,101.25
2204.00,101.24
2203.00,101.23
2202.00,101.22
2201.00,101.21
2200.00,101.20
2199.00,101.22
2198.00,101.27
2197.00,101.30
2196.00,101.30
2195.00,101.29
2194.00,101.30
2193.00,101.31
2192.00,101.29
2191.00,101.26
2190.00,101.25
2189.00,101.25
2188.00,101.25
2187.00,101.24
2186.00,101.22
2185.00,101.19
2184.00,101.14
2183.00,101.10
2182.00,101.08
2181.00,101.09
2180.00,101.14
2179.00,101.23
2178.00,101.33
2177.00,101.41
2176.00,101.44
2175.00,101.43
2174.00,101.40
2173.00,101.36
2172.00,101.31
2171.00,101.26
2170.00,101.24
2169.00,101.24
2168.00,101.24
2167.00,101.22
2166.00,101.20
2165.00,101.19
2164.00,101.20
2163.00,101.22
2162.00,101.24
2161.00,101.24
2160.00,101.22
2159.00,101.16
2158.00,101.10
2157.00,101.06
2156.00,101.05
2155.00,101.08
2154.00,101.09
2153.00,101.09
2152.00,101.07
2151.00,101.06
2150.00,101.06
2149.00,101.10
2148.00,101.17
2147.00,101.26
2146.00,101.30
2145.00,101.29
2144.00,101.24
2143.00,101.21
2142.00,101.23
2141.00,101.26
2140.00,101.28
2139.00,101.27
2138.00,101.23
2137.00,101.18
2136.00,101.17
2135.00,101.18
2134.00,101.19
2133.00,101.19
2132.00,101.18
2131.00,101.18
2130.00,101.18
2129.00,101.18
2128.00,101.20
2127.00,101.23
2126.00,101.25
2125.00,101.25
2124.00,101.25
2123.00,101.26
2122.00,101.27
2121.00,101.27
2120.00,101.28
2119.00,101.30
2118.00,101.33
2117.00,101.35
2116.00,101.35
2115.00,101.35
2114.00,101.34
2113.00,101.34
2112.00,101.35
2111.00,101.39
2110.00,101.43
2109.00,101.45
2108.00,101.44
2107.00,101.43
2106.00,101.41
2105.00,101.38
2104.00,101.35
2103.00,101.34
2102.00,101.36
2101.00,101.38
2100.00,101.38
2099.00,101.37
2098.00,101.38
2097.00,101.38
2096.00,101.39
2095.00,101.39
2094.00,101.39
2093.00,101.39
2092.00,101.40
2091.00,101.40
2090.00,101.41
2089.00,101.44
2088.00,101.49
2087.00,101.55
2086.00,101.61
2085.00,101.63
2084.00,101.62
2083.00,101.59
2082.00,101.56
2081.00,101.54
2080.00,101.53
2079.00,101.54
2078.00,101.54
2077.00,101.50
2076.00,101.46
2075.00,101.45
2074.00,101.45
2073.00,101.44
2072.00,101.42
2071.00,101.40
2070.00,101.41
2069.00,101.43
2068.00,101.44
2067.00,101.45
2066.00,101.44
2065.00,101.41
2064.00,101.38
2063.00,101.37
2062.00,101.37
2061.00,101.38
2060.00,101.39
2059.00,101.42
2058.00,101.47
2057.00,101.51
2056.00,101.52
2055.00,101.55
2054.00,101.60
2053.00,101.64
2052.00,101.66
2051.00,101.66
2050.00,101.66
2049.00,101.65
2048.00,101.62
2047.00,101.59
2046.00,101.56
2045.00,101.54
2044.00,101.53
2043.00,101.52
2042.00,101.52
2041.00,101.49
2040.00,101.46
2039.00,101.45
2038.00,101.45
2037.00,101.44
2036.00,101.38
2035.00,101.33
2034.00,101.33
2033.00,101.37
2032.00,101.42
2031.00,101.46
2030.00,101.49
2029.00,101.50
2028.00,101.51
2027.00,101.51
2026.00,101.50
2025.00,101.47
2024.00,101.44
2023.00,101.43
2022.00,101.45
2021.00,101.45
2020.00,101.42
2019.00,101.39
2018.00,101.38
2017.00,101.40
2016.00,101.43
2015.00,101.48
2014.00,101.53
2013.00,101.57
2012.00,101.58
2011.00,101.57
2010.00,101.54
2009.00,101.51
2008.00,101.48
2007.00,101.48
2006.00,101.48
2005.00,101.49
2004.00,101.49
2003.00,101.50
2002.00,101.52
2001.00,101.52
2000.00,101.51
1999.00,101.51
1998.00,101.51
1997.00,101.49
1996.00,101.48
1995.00,101.50
1994.00,101.53
1993.00,101.54
1992.00,101.51
1991.00,101.49
1990.00,101.50
1989.00,101.52
1988.00,101.54
1987.00,101.58
1986.00,101.62
1985.00,101.62
1984.00,101.60
1983.00,101.56
1982.00,101.55
1981.00,101.54
1980.00,101.53
1979.00,101.54
1978.00,101.58
1977.00,101.61
1976.00,101.61
1975.00,101.60
1974.00,101.61
1973.00,101.61
1972.00,101.58
1971.00,101.55
1970.00,101.52
1969.00,101.49
1968.00,101.45
1967.00,101.44
1966.00,101.48
1965.00,101.54
1964.00,101.59
1963.00,101.61
1962.00,101.58
1961.00,101.53
1960.00,101.50
1959.00,101.53
1958.00,101.60
1957.00,101.64
1956.00,101.63
1955.00,101.59
1954.00,101.56
1953.00,101.54
1952.00,101.54
1951.00,101.56
1950.00,101.58
1949.00,101.58
1948.00,101.56
1947.00,101.54
1946.00,101.53
1945.00,101.52
1944.00,101.50
1943.00,101.50
1942.00,101.50
1941.00,101.49
1940.00,101.48
1939.00,101.48
1938.00,101.49
1937.00,101.49
1936.00,101.49
1935.00,101.50
1934.00,101.51
1933.00,101.49
1932.00,101.46
1931.00,101.45
1930.00,101.46
1929.00,101.49
1928.00,101.52
1927.00,101.56
1926.00,101.62
1925.00,101.66
1924.00,101.66
1923.00,101.63
1922.00,101.56
1921.00,101.50
1920.00,101.47
1919.00,101.50
1918.00,101.54
1917.00,101.57
1916.00,101.56
1915.00,101.55
1914.00,101.55
1913.00,101.55
1912.00,101.53
1911.00,101.51
1910.00,101.48
1909.00,101.46
1908.00,101.46
1907.00,101.48
1906.00,101.51
1905.00,101.51
1904.00,101.48
1903.00,101.46
1902.00,101.47
1901.00,101.48
1900.00,101.49
1899.00,101.50
1898.00,101.50
1897.00,101.50
1896.00,101.51
1895.00,101.52
1894.00,101.55
1893.00,101.58
1892.00,101.59
1891.00,101.59
1890.00,101.57
1889.00,101.53
1888.00,101.48
1887.00,101.46
1886.00,101.47
1885.00,101.47
1884.00,101.46
1883.00,101.45
1882.00,101.45
1881.00,101.46
1880.00,101.47
1879.00,101.47
1878.00,101.47
1877.00,101.46
1876.00,101.45
1875.00,101.46
1874.00,101.49
1873.00,101.50
1872.00,101.49
1871.00,101.48
1870.00,101.49
1869.00,101.51
1868.00,101.52
1867.00,101.53
1866.00,101.53
1865.00,101.51
1864.00,101.47
1863.00,101.45
1862.00,101.45
1861.00,101.46
1860.00,101.46
1859.00,101.46
1858.00,101.45
1857.00,101.45
1856.00,101.45
1855.00,101.45
1854.00,101.44
1853.00,101.43
1852.00,101.41
1851.00,101.40
1850.00,101.41
1849.00,101.43
1848.00,101.44
1847.00,101.44
1846.00,101.43
1845.00,101.44
1844.00,101.45
1843.00,101.46
1842.00,101.47
1841.00,101.48
1840.00,101.49
1839.00,101.50
1838.00,101.52
1837.00,101.51
1836.00,101.49
1835.00,101.47
1834.00,101.46
1833.00,101.44
1832.00,101.42
1831.00,101.43
1830.00,101.46
1829.00,101.47
1828.00,101.47
1827.00,101.46
1826.00,101.45
1825.00,101.44
1824.00,101.43
1823.00,101.43
1822.00,101.44
1821.00,101.44
1820.00,101.44
1819.00,101.44
1818.00,101.45
1817.00,101.44
1816.00,101.42
1815.00,101.40
1814.00,101.37
1813.00,101.35
1812.00,101.34
1811.00,101.35
1810.00,101.36
1809.00,101.36
1808.00,101.34
1807.00,101.33
1806.00,101.33
1805.00,101.33
1804.00,101.31
1803.00,101.30
1802.00,101.29
1801.00,101.29
1800.00,101.29
1799.00,101.29
1798.00,101.29
1797.00,101.28
1796.00,101.26
1795.00,101.23
1794.00,101.19
1793.00,101.13
1792.00,101.06
1791.00,101.01
1790.00,100.98
1789.00,100.95
1788.00,100.89
1787.00,100.84
1786.00,100.78
1785.00,100.72
1784.00,100.67
1783.00,100.61
1782.00,100.55
1781.00,100.48
1780.00,100.41
1779.00,100.34
1778.00,100.29
1777.00,100.25
1776.00,100.21
1775.00,100.17
1774.00,100.14
1773.00,100.11
1772.00,100.08
1771.00,100.06
1770.00,100.05
1769.00,100.05
1768.00,100.06
1767.00,100.08
1766.00,100.09
1765.00,100.10
1764.00,100.09
1763.00,100.09
1762.00,100.10
1761.00,100.10
1760.00,100.09
1759.00,100.07
1758.00,100.05
1757.00,100.03
1756.00,100.02
1755.00,100.02
1754.00,100.01
1753.00,100.00
1752.00,99.97
1751.00,99.94
1750.00,99.89
1749.00,99.84
1748.00,99.78
1747.00,99.72
1746.00,99.66
1745.00,99.60
1744.00,99.52
1743.00,99.45
1742.00,99.39
1741.00,99.33
1740.00,99.26
1739.00,99.19
1738.00,99.13
1737.00,99.05
1736.00,98.95
1735.00,98.85
1734.00,98.75
1733.00,98.65
1732.00,98.57
1731.00,98.49
1730.00,98.42
1729.00,98.34
1728.00,98.28
1727.00,98.23
1726.00,98.22
1725.00,98.22
1724.00,98.21
1723.00,98.21
1722.00,98.21
1721.00,98.20
1720.00,98.20
1719.00,98.25
1718.00,98.34
1717.00,98.39
1716.00,98.41
1715.00,98.42
1714.00,98.44
1713.00,98.46
1712.00,98.47
1711.00,98.49
1710.00,98.51
1709.00,98.53
1708.00,98.53
1707.00,98.52
1706.00,98.51
1705.00,98.49
1704.00,98.48
1703.00,98.47
1702.00,98.46
1701.00,98.46
1700.00,98.44
1699.00,98.40
1698.00,98.34
1697.00,98.23
1696.00,98.13
1695.00,98.07
1694.00,98.05
1693.00,98.02
1692.00,97.98
1691.00,97.95
1690.00,97.94
1689.00,97.92
1688.00,97.90
1687.00,97.86
1686.00,97.82
1685.00,97.78
1684.00,97.71
1683.00,97.63
1682.00,97.57
1681.00,97.51
1680.00,97.44
1679.00,97.38
1678.00,97.32
1677.00,97.27
1676.00,97.22
1675.00,97.19
1674.00,97.18
1673.00,97.15
1672.00,97.08
1671.00,97.01
1670.00,96.94
1669.00,96.88
1668.00,96.83
1667.00,96.80
1666.00,96.78
1665.00,96.74
1664.00,96.69
1663.00,96.64
1662.00,96.59
1661.00,96.56
1660.00,96.52
1659.00,96.47
1658.00,96.44
1657.00,96.42
1656.00,96.37
1655.00,96.33
1654.00,96.32
1653.00,96.31
1652.00,96.30
1651.00,96.30
1650.00,96.29
1649.00,96.28
1648.00,96.27
1647.00,96.26
1646.00,96.26
1645.00,96.26
1644.00,96.25
1643.00,96.24
1642.00,96.26
1641.00,96.29
1640.00,96.33
1639.00,96.37
1638.00,96.40
1637.00,96.45
1636.00,96.50
1635.00,96.57
1634.00,96.63
1633.00,96.67
1632.00,96.69
1631.00,96.73
1630.00,96.80
1629.00,96.88
1628.00,96.96
1627.00,97.03
1626.00,97.09
1625.00,97.15
1624.00,97.22
1623.00,97.31
1622.00,97.42
1621.00,97.52
1620.00,97.59
1619.00,97.66
1618.00,97.77
1617.00,97.90
1616.00,98.03
1615.00,98.12
1614.00,98.18
1613.00,98.23
1612.00,98.29
1611.00,98.36
1610.00,98.43
1609.00,98.50
1608.00,98.58
1607.00,98.66
1606.00,98.75
1605.00,98.82
1604.00,98.87
1603.00,98.93
1602.00,98.99
1601.00,99.04
1600.00,99.09
1599.00,99.15
1598.00,99.21
1597.00,99.27
1596.00,99.33
1595.00,99.38
1594.00,99.43
1593.00,99.46
1592.00,99.49
1591.00,99.52
1590.00,99.55
1589.00,99.58
1588.00,99.61
1587.00,99.63
1586.00,99.66
1585.00,99.68
1584.00,99.71
1583.00,99.74
1582.00,99.79
1581.00,99.83
1580.00,99.87
1579.00,99.91
1578.00,99.94
1577.00,99.98
1576.00,100.00
1575.00,100.02
1574.00,100.03
1573.00,100.02
1572.00,100.02
1571.00,100.03
1570.00,100.07
1569.00,100.12
1568.00,100.15
1567.00,100.17
1566.00,100.19
1565.00,100.22
1564.00,100.24
1563.00,100.26
1562.00,100.27
1561.00,100.29
1560.00,100.35
1559.00,100.39
1558.00,100.40
1557.00,100.40
1556.00,100.38
1555.00,100.37
1554.00,100.39
1553.00,100.41
1552.00,100.42
1551.00,100.42
1550.00,100.42
1549.00,100.41
1548.00,100.40
1547.00,100.41
1546.00,100.42
1545.00,100.41
1544.00,100.40
1543.00,100.39
1542.00,100.39
1541.00,100.34
1540.00,100.21
1539.00,100.09
1538.00,100.03
1537.00,99.97
1536.00,99.89
1535.00,99.79
1534.00,99.66
1533.00,99.49
1532.00,99.33
1531.00,99.22
1530.00,99.11
1529.00,98.98
1528.00,98.82
1527.00,98.65
1526.00,98.48
1525.00,98.30
1524.00,98.12
1523.00,97.93
1522.00,97.69
1521.00,97.41
1520.00,97.16
1519.00,96.95
1518.00,96.72
1517.00,96.44
1516.00,96.14
1515.00,95.88
1514.00,95.64
1513.00,95.39
1512.00,95.13
1511.00,94.91
1510.00,94.72
1509.00,94.49
1508.00,94.17
1507.00,93.73
1506.00,93.31
1505.00,93.02
1504.00,92.79
1503.00,92.57
1502.00,92.33
1501.00,92.04
1500.00,91.74
1499.00,91.43
1498.00,91.10
1497.00,90.70
1496.00,90.30
1495.00,89.98
1494.00,89.70
1493.00,89.43
1492.00,89.13
1491.00,88.81
1490.00,88.43
1489.00,88.02
1488.00,87.65
1487.00,87.32
1486.00,87.01
1485.00,86.70
1484.00,86.41
1483.00,86.12
1482.00,85.81
1481.00,85.48
1480.00,85.16
1479.00,84.88
1478.00,84.60
1477.00,84.30
1476.00,84.00
1475.00,83.72
1474.00,83.43
1473.00,83.05
1472.00,82.65
1471.00,82.32
1470.00,82.05
1469.00,81.79
1468.00,81.52
1467.00,81.25
1466.00,80.95
1465.00,80.63
1464.00,80.30
1463.00,80.03
1462.00,79.77
1461.00,79.51
1460.00,79.23
1459.00,78.93
1458.00,78.58
1457.00,78.17
1456.00,77.83
1455.00,77.58
1454.00,77.34
1453.00,77.05
1452.00,76.76
1451.00,76.49
1450.00,76.23
1449.00,75.94
1448.00,75.64
1447.00,75.35
1446.00,75.09
1445.00,74.82
1444.00,74.57
1443.00,74.33
1442.00,74.08
1441.00,73.81
1440.00,73.55
1439.00,73.31
1438.00,73.07
1437.00,72.79
1436.00,72.51
1435.00,72.28
1434.00,72.07
1433.00,71.85
1432.00,71.64
1431.00,71.46
1430.00,71.29
1429.00,71.12
1428.00,70.97
1427.00,70.84
1426.00,70.74
1425.00,70.64
1424.00,70.55
1423.00,70.49
1422.00,70.41
1421.00,70.32
1420.00,70.27
1419.00,70.28
1418.00,70.29
1417.00,70.24
1416.00,70.15
1415.00,70.05
1414.00,69.95
1413.00,69.81
1412.00,69.65
1411.00,69.51
1410.00,69.38
1409.00,69.26
1408.00,69.17
1407.00,69.12
1406.00,69.09
1405.00,69.06
1404.00,69.03
1403.00,69.00
1402.00,68.95
1401.00,68.87
1400.00,68.81
1399.00,68.78
1398.00,68.76
1397.00,68.72
1396.00,68.70
1395.00,68.75
1394.00,68.84
1393.00,68.93
1392.00,69.03
1391.00,69.16
1390.00,69.29
1389.00,69.44
1388.00,69.65
1387.00,69.90
1386.00,70.15
1385.00,70.35
1384.00,70.55
1383.00,70.76
1382.00,70.98
1381.00,71.18
1380.00,71.40
1379.00,71.63
1378.00,71.85
1377.00,72.04
1376.00,72.23
1375.00,72.48
1374.00,72.75
1373.00,73.00
1372.00,73.23
1371.00,73.44
1370.00,73.67
1369.00,73.91
1368.00,74.17
1367.00,74.43
1366.00,74.65
1365.00,74.85
1364.00,75.08
1363.00,75.37
1362.00,75.66
1361.00,75.91
1360.00,76.14
1359.00,76.36
1358.00,76.59
1357.00,76.81
1356.00,77.04
1355.00,77.28
1354.00,77.52
1353.00,77.76
1352.00,77.99
1351.00,78.24
1350.00,78.49
1349.00,78.72
1348.00,78.95
1347.00,79.18
1346.00,79.42
1345.00,79.66
1344.00,79.90
1343.00,80.12
1342.00,80.31
1341.00,80.49
1340.00,80.69
1339.00,80.92
1338.00,81.14
1337.00,81.34
1336.00,81.55
1335.00,81.75
1334.00,81.94
1333.00,82.11
1332.00,82.30
1331.00,82.50
1330.00,82.69
1329.00,82.87
1328.00,83.05
1327.00,83.24
1326.00,83.43
1325.00,83.62
1324.00,83.80
1323.00,83.96
1322.00,84.11
1321.00,84.24
1320.00,84.40
1319.00,84.58
1318.00,84.78
1317.00,84.96
1316.00,85.12
1315.00,85.28
1314.00,85.41
1313.00,85.54
1312.00,85.68
1311.00,85.84
1310.00,85.99
1309.00,86.13
1308.00,86.27
1307.00,86.41
1306.00,86.54
1305.00,86.66
1304.00,86.77
1303.00,86.89
1302.00,87.00
1301.00,87.12
1300.00,87.26
1299.00,87.40
1298.00,87.52
1297.00,87.62
1296.00,87.71
1295.00,87.81
1294.00,87.91
1293.00,88.02
1292.00,88.13
1291.00,88.25
1290.00,88.36
1289.00,88.47
1288.00,88.57
1287.00,88.67
1286.00,88.76
1285.00,88.84
1284.00,88.94
1283.00,89.03
1282.00,89.12
1281.00,89.20
1280.00,89.28
1279.00,89.34
1278.00,89.41
1277.00,89.47
1276.00,89.55
1275.00,89.63
1274.00,89.69
1273.00,89.73
1272.00,89.78
1271.00,89.83
1270.00,89.88
1269.00,89.92
1268.00,89.94
1267.00,89.96
1266.00,89.97
1265.00,89.98
1264.00,90.00
1263.00,90.05
1262.00,90.10
1261.00,90.16
1260.00,90.25
1259.00,90.35
1258.00,90.45
1257.00,90.55
1256.00,90.65
1255.00,90.76
1254.00,90.87
1253.00,90.97
1252.00,91.07
1251.00,91.15
1250.00,91.23
1249.00,91.30
1248.00,91.38
1247.00,91.47
1246.00,91.53
1245.00,91.59
1244.00,91.66
1243.00,91.73
1242.00,91.80
1241.00,91.86
1240.00,91.94
1239.00,92.02
1238.00,92.09
1237.00,92.14
1236.00,92.20
1235.00,92.26
1234.00,92.33
1233.00,92.40
1232.00,92.47
1231.00,92.53
1230.00,92.58
1229.00,92.64
1228.00,92.70
1227.00,92.77
1226.00,92.82
1225.00,92.87
1224.00,92.94
1223.00,93.01
1222.00,93.08
1221.00,93.16
1220.00,93.26
1219.00,93.35
1218.00,93.42
1217.00,93.45
1216.00,93.49
1215.00,93.53
1214.00,93.57
1213.00,93.61
1212.00,93.65
1211.00,93.69
1210.00,93.73
1209.00,93.77
1208.00,93.81
1207.00,93.83
1206.00,93.82
1205.00,93.77
1204.00,93.72
1203.00,93.66
1202.00,93.59
1201.00,93.54
1200.00,93.49
1199.00,93.44
1198.00,93.36
1197.00,93.27
1196.00,93.17
1195.00,93.06
1194.00,92.94
1193.00,92.80
1192.00,92.65
1191.00,92.48
1190.00,92.29
1189.00,92.10
1188.00,91.92
1187.00,91.73
1186.00,91.52
1185.00,91.30
1184.00,91.05
1183.00,90.77
1182.00,90.47
1181.00,90.16
1180.00,89.87
1179.00,89.57
1178.00,89.26
1177.00,88.94
1176.00,88.61
1175.00,88.27
1174.00,87.92
1173.00,87.55
1172.00,87.18
1171.00,86.77
1170.00,86.34
1169.00,85.88
1168.00,85.44
1167.00,85.01
1166.00,84.58
1165.00,84.11
1164.00,83.63
1163.00,83.13
1162.00,82.63
1161.00,82.13
1160.00,81.62
1159.00,81.14
1158.00,80.69
1157.00,80.28
1156.00,79.90
1155.00,79.56
1154.00,79.23
1153.00,78.93
1152.00,78.64
1151.00,78.39
1150.00,78.15
1149.00,77.92
1148.00,77.69
1147.00,77.46
1146.00,77.25
1145.00,77.07
1144.00,76.93
1143.00,76.81
1142.00,76.70
1141.00,76.58
1140.00,76.45
1139.00,76.35
1138.00,76.26
1137.00,76.19
1136.00,76.12
1135.00,76.06
1134.00,76.00
1133.00,75.92
1132.00,75.85
1131.00,75.79
1130.00,75.74
1129.00,75.72
1128.00,75.72
1127.00,75.77
1126.00,75.82
1125.00,75.86
1124.00,75.90
1123.00,75.95
1122.00,76.01
1121.00,76.08
1120.00,76.17
1119.00,76.28
1118.00,76.40
1117.00,76.51
1116.00,76.62
1115.00,76.74
1114.00,76.88
1113.00,77.02
1112.00,77.18
1111.00,77.37
1110.00,77.58
1109.00,77.79
1108.00,77.99
1107.00,78.20
1106.00,78.43
1105.00,78.70
1104.00,79.02
1103.00,79.36
1102.00,79.70
1101.00,80.03
1100.00,80.36
1099.00,80.69
1098.00,81.01
1097.00,81.33
1096.00,81.67
1095.00,82.05
1094.00,82.43
1093.00,82.78
1092.00,83.09
1091.00,83.38
1090.00,83.67
1089.00,83.97
1088.00,84.32
1087.00,84.68
1086.00,85.04
1085.00,85.36
1084.00,85.67
1083.00,85.95
1082.00,86.20
1081.00,86.42
1080.00,86.61
1079.00,86.81
1078.00,87.03
1077.00,87.25
1076.00,87.47
1075.00,87.64
1074.00,87.77
1073.00,87.88
1072.00,87.98
1071.00,88.08
1070.00,88.18
1069.00,88.30
1068.00,88.47
1067.00,88.68
1066.00,88.87
1065.00,89.04
1064.00,89.21
1063.00,89.39
1062.00,89.56
1061.00,89.72
1060.00,89.88
1059.00,90.07
1058.00,90.27
1057.00,90.47
1056.00,90.64
1055.00,90.77
1054.00,90.85
1053.00,90.92
1052.00,91.01
1051.00,91.12
1050.00,91.23
1049.00,91.33
1048.00,91.44
1047.00,91.55
1046.00,91.65
1045.00,91.73
1044.00,91.80
1043.00,91.87
1042.00,91.95
1041.00,92.05
1040.00,92.19
1039.00,92.34
1038.00,92.48
1037.00,92.61
1036.00,92.72
1035.00,92.83
1034.00,92.92
1033.00,92.98
1032.00,93.02
1031.00,93.05
1030.00,93.07
1029.00,93.08
1028.00,93.08
1027.00,93.07
1026.00,93.03
1025.00,92.97
1024.00,92.92
1023.00,92.90
1022.00,92.87
1021.00,92.82
1020.00,92.74
1019.00,92.64
1018.00,92.56
1017.00,92.47
1016.00,92.37
1015.00,92.23
1014.00,92.04
1013.00,91.84
1012.00,91.63
1011.00,91.40
1010.00,91.12
1009.00,90.80
1008.00,90.45
1007.00,90.11
1006.00,89.78
1005.00,89.49
1004.00,89.23
1003.00,89.00
1002.00,88.77
1001.00,88.55
1000.00,88.39
999.00,88.32
998.00,88.35
997.00,88.46
996.00,88.63
995.00,88.86
994.00,89.13
993.00,89.46
992.00,89.83
991.00,90.24
990.00,90.67
989.00,91.10
988.00,91.54
987.00,91.98
986.00,92.40
985.00,92.79
984.00,93.15
983.00,93.47
982.00,93.75
981.00,93.98
980.00,94.19
979.00,94.41
978.00,94.62
977.00,94.81
976.00,94.96
975.00,95.07
974.00,95.16
973.00,95.25
972.00,95.37
971.00,95.49
970.00,95.60
969.00,95.71
968.00,95.83
967.00,95.96
966.00,96.07
965.00,96.15
964.00,96.23
963.00,96.31
962.00,96.38
961.00,96.41
960.00,96.43
959.00,96.49
958.00,96.60
957.00,96.74
956.00,96.85
955.00,96.91
954.00,96.95
953.00,96.99
952.00,97.07
951.00,97.15
950.00,97.21
949.00,97.23
948.00,97.27
947.00,97.32
946.00,97.39
945.00,97.46
944.00,97.52
943.00,97.57
942.00,97.58
941.00,97.60
940.00,97.63
939.00,97.68
938.00,97.74
937.00,97.78
936.00,97.82
935.00,97.87
934.00,97.92
933.00,97.99
932.00,98.06
931.00,98.11
930.00,98.15
929.00,98.17
928.00,98.20
927.00,98.24
926.00,98.28
925.00,98.31
924.00,98.31
923.00,98.27
922.00,98.20
921.00,98.17
920.00,98.19
919.00,98.27
918.00,98.35
917.00,98.40
916.00,98.42
915.00,98.39
914.00,98.35
913.00,98.29
912.00,98.25
911.00,98.21
910.00,98.19
909.00,98.16
908.00,98.09
907.00,97.97
906.00,97.84
905.00,97.73
904.00,97.65
903.00,97.55
902.00,97.39
901.00,97.17
900.00,96.90
899.00,96.62
898.00,96.34
897.00,96.11
896.00,95.93
895.00,95.81
894.00,95.73
893.00,95.65
892.00,95.51
891.00,95.22
890.00,94.72
889.00,93.91
888.00,92.79
887.00,91.37
886.00,89.78
885.00,88.18
884.00,86.68
883.00,85.32
882.00,84.06
881.00,82.84
880.00,81.66
879.00,80.59
878.00,79.77
877.00,79.32
876.00,79.33
875.00,79.74
874.00,80.36
873.00,81.02
872.00,81.60
871.00,82.08
870.00,82.44
869.00,82.68
868.00,82.79
867.00,82.80
866.00,82.75
865.00,82.69
864.00,82.65
863.00,82.67
862.00,82.74
861.00,82.84
860.00,82.95
859.00,83.04
858.00,83.10
857.00,83.06
856.00,82.92
855.00,82.66
854.00,82.33
853.00,81.99
852.00,81.70
851.00,81.50
850.00,81.39
849.00,81.34
848.00,81.30
847.00,81.25
846.00,81.15
845.00,80.96
844.00,80.70
843.00,80.36
842.00,79.99
841.00,79.58
840.00,79.14
839.00,78.72
838.00,78.34
837.00,78.03
836.00,77.77
835.00,77.51
834.00,77.26
833.00,77.03
832.00,76.82
831.00,76.63
830.00,76.43
829.00,76.18
828.00,75.87
827.00,75.53
826.00,75.24
825.00,75.05
824.00,75.00
823.00,75.08
822.00,75.23
821.00,75.41
820.00,75.63
819.00,75.90
818.00,76.20
817.00,76.50
816.00,76.78
815.00,77.04
814.00,77.28
813.00,77.48
812.00,77.66
811.00,77.84
810.00,78.04
809.00,78.25
808.00,78.45
807.00,78.63
806.00,78.82
805.00,79.02
804.00,79.24
803.00,79.47
802.00,79.70
801.00,79.92
800.00,80.14
799.00,80.36
798.00,80.60
797.00,80.85
796.00,81.11
795.00,81.36
794.00,81.59
793.00,81.78
792.00,81.94
791.00,82.12
790.00,82.33
789.00,82.56
788.00,82.81
787.00,83.05
786.00,83.27
785.00,83.46
784.00,83.64
783.00,83.79
782.00,83.90
781.00,83.99
780.00,84.10
779.00,84.27
778.00,84.45
777.00,84.63
776.00,84.80
775.00,84.96
774.00,85.13
773.00,85.30
772.00,85.45
771.00,85.59
770.00,85.72
769.00,85.85
768.00,85.99
767.00,86.14
766.00,86.30
765.00,86.47
764.00,86.60
763.00,86.70
762.00,86.79
761.00,86.91
760.00,87.10
759.00,87.31
758.00,87.51
757.00,87.65
756.00,87.75
755.00,87.83
754.00,87.90
753.00,87.96
752.00,88.04
751.00,88.15
750.00,88.28
749.00,88.41
748.00,88.53
747.00,88.66
746.00,88.82
745.00,88.99
744.00,89.12
743.00,89.21
742.00,89.30
741.00,89.45
740.00,89.65
739.00,89.83
738.00,89.95
737.00,90.03
736.00,90.12
735.00,90.24
734.00,90.36
733.00,90.48
732.00,90.62
731.00,90.76
730.00,90.91
729.00,91.05
728.00,91.19
727.00,91.33
726.00,91.46
725.00,91.56
724.00,91.66
723.00,91.79
722.00,91.93
721.00,92.05
720.00,92.13
719.00,92.17
718.00,92.19
717.00,92.23
716.00,92.33
715.00,92.43
714.00,92.50
713.00,92.49
712.00,92.41
711.00,92.25
710.00,91.98
709.00,91.58
708.00,91.07
707.00,90.48
706.00,89.82
705.00,89.07
704.00,88.25
703.00,87.44
702.00,86.80
701.00,86.43
700.00,86.33
699.00,86.41
698.00,86.54
697.00,86.66
696.00,86.79
695.00,86.92
694.00,87.03
693.00,87.07
692.00,87.06
691.00,86.98
690.00,86.80
689.00,86.53
688.00,86.23
687.00,86.00
686.00,85.88
685.00,85.86
684.00,85.89
683.00,85.92
682.00,85.94
681.00,85.98
680.00,86.06
679.00,86.14
678.00,86.16
677.00,86.11
676.00,86.02
675.00,85.96
674.00,85.95
673.00,85.96
672.00,86.00
671.00,86.05
670.00,86.11
669.00,86.15
668.00,86.09
667.00,85.96
666.00,85.90
665.00,85.92
664.00,85.97
663.00,86.01
662.00,86.02
661.00,86.04
660.00,86.11
659.00,86.26
658.00,86.46
657.00,86.64
656.00,86.75
655.00,86.72
654.00,86.49
653.00,86.04
652.00,85.45
651.00,84.83
650.00,84.26
649.00,83.72
648.00,83.13
647.00,82.47
646.00,81.74
645.00,80.99
644.00,80.33
643.00,79.88
642.00,79.67
641.00,79.61
640.00,79.57
639.00,79.47
638.00,79.23
637.00,78.82
636.00,78.27
635.00,77.72
634.00,77.20
633.00,76.75
632.00,76.49
631.00,76.52
630.00,76.74
629.00,76.88
628.00,76.80
627.00,76.50
626.00,76.07
625.00,75.58
624.00,75.21
623.00,75.16
622.00,75.41
621.00,75.66
620.00,75.65
619.00,75.45
618.00,75.25
617.00,75.28
616.00,75.72
615.00,76.54
614.00,77.43
613.00,78.17
612.00,78.92
611.00,79.89
610.00,80.92
609.00,81.61
608.00,81.81
607.00,81.73
606.00,81.56
605.00,81.45
604.00,81.54
603.00,81.96
602.00,82.63
601.00,83.23
600.00,83.57
599.00,83.64
598.00,83.53
597.00,83.38
596.00,83.33
595.00,83.48
594.00,83.74
593.00,83.90
592.00,83.91
591.00,83.89
590.00,83.89
589.00,83.80
588.00,83.68
587.00,83.77
586.00,84.19
585.00,84.68
584.00,84.78
583.00,84.27
582.00,83.43
581.00,82.91
580.00,83.31
579.00,84.68
578.00,86.39
577.00,87.71
576.00,88.52
575.00,88.99
574.00,89.06
573.00,88.54
572.00,87.62
571.00,86.85
570.00,86.56
569.00,86.49
568.00,86.24
567.00,85.74
566.00,85.07
565.00,84.21
564.00,83.20
563.00,82.48
562.00,82.53
561.00,83.19
560.00,83.84
559.00,84.07
558.00,84.03
557.00,84.17
556.00,84.83
555.00,85.94
554.00,87.05
553.00,87.70
552.00,87.59
551.00,86.74
550.00,85.63
