Baseline 100%T,,Baseline 100%T,,Baseline 100%T,,sample1,,sample 5 with P b 10mM 50UL,,
Wavelength (nm),Abs,Wavelength (nm),Abs,Wavelength (nm),Abs,Wavelength (nm),Abs,Wavelength (nm),Abs,
800,-0.009053946473,800,-0.008677053265,800,-0.009199897759,800,0.008734137751,800,0.06335021555,
799,-0.007866514847,799,-0.008258537389,799,-0.0083441725,799,0.008344183676,799,0.06429617852,
798,-0.007973982953,798,-0.008324822411,798,-0.007732269354,798,0.007620828226,798,0.06427300721,
797,-0.008653759956,797,-0.00844913628,797,-0.00767148938,797,0.006766272709,797,0.06425790489,
796,-0.008618486114,796,-0.007620621007,796,-0.009096586145,796,0.008980074897,796,0.06536451727,
795,-0.007121387403,795,-0.008117096499,795,-0.007778496947,795,0.008023844101,795,0.06472776085,
794,-0.007961529307,794,-0.008451675065,794,-0.007258316502,794,0.007220528089,794,0.06391081214,
793,-0.00735733239,793,-0.008836068213,793,-0.007680136245,793,0.007635449525,793,0.06460074335,
792,-0.007481516339,792,-0.007757189218,792,-0.008463301696,792,0.007560978178,792,0.06638409197,
791,-0.007792888209,791,-0.008001531474,791,-0.006990987342,791,0.006484010257,791,0.06417354941,
790,-0.008150682785,790,-0.007501616608,790,-0.007435867563,790,0.006587179378,790,0.06554229558,
789,-0.007910236716,789,-0.008007579483,789,-0.007743509021,789,0.007820906118,789,0.06707264483,
788,-0.007718384732,788,-0.007560690399,788,-0.008156728931,788,0.008572184481,788,0.06702186912,
787,-0.008493256755,787,-0.007901340723,787,-0.006976569537,787,0.007235688623,787,0.06707753986,
786,-0.008550825529,786,-0.007764664944,786,-0.007332338952,786,0.007939999923,786,0.06663562357,
785,-0.007324550301,785,-0.008085387759,785,-0.007171703037,785,0.007724926807,785,0.06724236906,
784,-0.007104427088,784,-0.007451287936,784,-0.008180100471,784,0.008188970387,784,0.0685166195,
783,-0.007386702113,783,-0.007784243673,783,-0.00815484859,783,0.008541426621,783,0.06867422909,
782,-0.007783582434,782,-0.006338806357,782,-0.007798329461,782,0.008740424179,782,0.06796339899,
781,-0.008098752238,781,-0.007553669158,781,-0.007136360276,781,0.00755202258,781,0.06811259687,
780,-0.007053084671,780,-0.007839312777,780,-0.007028634194,780,0.007572199684,780,0.06729156524,
779,-0.007202103734,779,-0.006889390294,779,-0.006658697035,779,0.007488047238,779,0.06812949479,
778,-0.007386804093,778,-0.007732472848,778,-0.006948343944,778,0.007166233379,778,0.06781312823,
777,-0.007491032127,777,-0.007259080186,777,-0.007650278043,777,0.008711925708,777,0.07069458067,
776,-0.006707231514,776,-0.007241157815,776,-0.007895290852,776,0.009085002355,776,0.07010766864,
775,-0.007465282921,775,-0.007400037255,775,-0.00725230854,775,0.008283574134,775,0.06940113753,
774,-0.008225264028,774,-0.007523191161,774,-0.006813559681,774,0.007991068996,774,0.06947148591,
773,-0.007505381946,773,-0.006966634654,773,-0.007417036686,773,0.008617360145,773,0.07076184452,
772,-0.007049162872,772,-0.008263820782,772,-0.007128008176,772,0.00769947283,772,0.07032535225,
771,-0.006811266299,771,-0.007736999076,771,-0.00673633907,771,0.007360914722,771,0.07003880292,
770,-0.006597868633,770,-0.006401354447,770,-0.006827829871,770,0.007907389663,770,0.0712287277,
769,-0.007248031441,769,-0.007228428964,769,-0.007020635996,769,0.007532663178,769,0.07080349326,
768,-0.006659870036,768,-0.007832855918,768,-0.00663600862,768,0.007347513922,768,0.0718677938,
767,-0.006703255232,767,-0.007175471634,767,-0.006197044626,767,0.007617666852,767,0.07078959793,
766,-0.007251799107,766,-0.006937593222,766,-0.007044374477,766,0.008118017577,766,0.07218383253,
765,-0.005644508637,765,-0.006891632453,765,-0.006181273609,765,0.007466610055,765,0.0711813271,
764,-0.006967806257,764,-0.007187132724,764,-0.00645144796,764,0.006883368827,764,0.07222830504,
763,-0.00677788211,763,-0.006490671542,763,-0.006895760074,763,0.008447796106,763,0.07253848761,
762,-0.006573392078,762,-0.006603834685,762,-0.007105496712,762,0.007925105281,762,0.07246149331,
761,-0.006592463702,761,-0.006699992344,761,-0.00709811179,761,0.008172219619,761,0.07325829566,
760,-0.007098315284,760,-0.006997304503,760,-0.006563856266,760,0.006976347417,760,0.07358083129,
759,-0.006953286007,759,-0.005888714455,759,-0.006951961201,759,0.008152885363,759,0.07292717695,
758,-0.006799391005,758,-0.00671074912,758,-0.006552892271,758,0.008057412691,758,0.07418154925,
757,-0.007094648201,757,-0.007072746288,757,-0.006266961806,757,0.007467663381,757,0.07412774861,
756,-0.006440939847,756,-0.007304543629,756,-0.007366342004,756,0.008847723715,756,0.07522286475,
755,-0.006640954409,755,-0.007166763302,755,-0.006537745707,755,0.008252494968,755,0.07466487586,
754,-0.007569950074,754,-0.006667466369,754,-0.005706339143,754,0.00755984569,754,0.07408618182,
753,-0.006008723285,753,-0.006755046546,753,-0.006275892258,753,0.008022077382,753,0.07508202642,
752,-0.006370540708,752,-0.006502402481,752,-0.006466801278,752,0.007828971371,752,0.07634283602,
751,-0.006510206033,751,-0.006864573807,751,-0.006940854248,751,0.007908154279,751,0.07613124698,
750,-0.00690019317,750,-0.006865032483,750,-0.007204395253,750,0.008600831032,750,0.07802129537,
749,-0.006309212651,749,-0.006955986377,749,-0.007085734978,749,0.009194131941,749,0.0758645758,
748,-0.006850763224,748,-0.006816974375,748,-0.006349163596,748,0.008369490504,748,0.0761198625,
747,-0.006828696467,747,-0.006671647076,747,-0.006763100158,747,0.008725950494,747,0.07716729492,
746,-0.006705396343,746,-0.006346714683,746,-0.006637181155,746,0.007675706409,746,0.07756970823,
745,-0.006576145999,745,-0.007129841484,745,-0.006230116356,745,0.007700684946,745,0.07752948254,
744,-0.007225068286,744,-0.00794394128,744,-0.005867875181,744,0.006954120472,744,0.07639051974,
743,-0.006697698496,743,-0.006529024802,743,-0.006309824996,743,0.008047022857,743,0.07854282111,
742,-0.007282296196,742,-0.006521324161,742,-0.006199852098,742,0.007963648997,742,0.07781724632,
741,-0.006949108094,741,-0.007094342727,741,-0.006054011639,741,0.007349093445,741,0.07813736051,
740,-0.007115020882,740,-0.007084868848,740,-0.006508828606,740,0.007470244542,740,0.07888411731,
739,-0.007175573148,739,-0.00658639567,739,-0.006676949095,739,0.008038979955,739,0.07947496325,
738,-0.007050079759,738,-0.006886791438,738,-0.007081965916,738,0.008940595202,738,0.07963700593,
737,-0.006899072323,737,-0.007480040658,737,-0.006474656053,737,0.008185514249,737,0.07990749925,
736,-0.007343130652,736,-0.00714048557,736,-0.006555849686,736,0.00769151561,736,0.08066020161,
735,-0.007053288631,735,-0.006614389829,735,-0.006694894284,735,0.007940843701,735,0.08070998639,
734,-0.007523598149,734,-0.007851464674,734,-0.006707945373,734,0.008000851609,734,0.08038727939,
733,-0.007684968412,733,-0.006628717296,733,-0.007073917892,733,0.007965916768,733,0.081712313,
732,-0.007434646133,732,-0.007564811502,732,-0.006830531172,732,0.007734623738,732,0.08145768195,
731,-0.007582262158,731,-0.007735168096,731,-0.007103408687,731,0.008395986632,731,0.08264512569,
730,-0.007969611324,730,-0.007702363655,730,-0.007397543173,730,0.008444602601,730,0.08211937547,
729,-0.007973321714,729,-0.007460397203,729,-0.007113136351,729,0.007983080111,729,0.08270180225,
728,-0.007798023988,728,-0.007466351613,728,-0.007702007424,728,0.008399549872,728,0.08261547238,
727,-0.008401912637,727,-0.008015763015,727,-0.008053625934,727,0.00921118632,727,0.08263923973,
726,-0.008084879257,726,-0.008543362841,726,-0.007905153558,726,0.008469598368,726,0.08326808363,
725,-0.008133000694,725,-0.007852328941,725,-0.007834126242,725,0.00782630872,725,0.08375483006,
724,-0.007826194167,724,-0.008469495922,724,-0.007771326695,724,0.008232655004,724,0.08374449611,
723,-0.008340261877,723,-0.008226280101,723,-0.008061096072,723,0.007708352525,723,0.08513418585,
722,-0.008542144671,722,-0.008625439368,722,-0.00817842409,722,0.007770199329,722,0.08454615623,
721,-0.008890750818,721,-0.008729421534,721,-0.008060283028,721,0.008052350022,721,0.08389718086,
720,-0.009741907939,720,-0.008468125015,720,-0.00823623687,720,0.007752648089,720,0.08421326429,
719,-0.009044311941,719,-0.008794316091,719,-0.008857069537,719,0.009583394974,719,0.08582055569,
718,-0.008599706925,718,-0.008460814133,718,-0.008689283393,718,0.009765316732,718,0.0862422809,
717,-0.009084823541,717,-0.009117472917,717,-0.008562449366,717,0.008004701696,717,0.08624111861,
716,-0.008529098704,716,-0.008827139623,716,-0.008972609416,716,0.008337534033,716,0.08637914062,
715,-0.009704292752,715,-0.008864678442,715,-0.008268697187,715,0.008545993827,715,0.08632776141,
714,-0.009291529655,714,-0.009794502519,714,-0.00897747837,714,0.00875407923,714,0.08744844049,
713,-0.009060790762,713,-0.00953886006,713,-0.009293455631,713,0.009321563877,713,0.08787152916,
712,-0.008985845372,712,-0.009591478854,712,-0.008845655248,712,0.0083006192,712,0.08797042072,
711,-0.008934319019,711,-0.009169737808,711,-0.008917632513,711,0.00905941613,711,0.08852984011,
710,-0.009411767125,710,-0.009015358984,710,-0.00903696008,710,0.0079950504,710,0.08830782026,
709,-0.009257778525,709,-0.009591580369,709,-0.009168673307,709,0.008447268046,709,0.08822962642,
708,-0.009758916683,708,-0.008580571041,708,-0.008978137746,708,0.008949553594,708,0.08922220767,
707,-0.009200202301,707,-0.009265734814,707,-0.009016728029,707,0.007959694602,707,0.08907511085,
706,-0.009318387136,706,-0.009609861299,706,-0.009296951815,706,0.00877307076,706,0.09038255364,
705,-0.008793199435,705,-0.008744440973,705,-0.008972102776,705,0.008504600264,705,0.09041758627,
704,-0.009732794948,704,-0.008705471642,704,-0.008337976411,704,0.007348198444,704,0.09062021226,
703,-0.009116611443,703,-0.009055872448,703,-0.009045478888,703,0.00814368017,703,0.09147116542,
702,-0.009072909132,702,-0.009310025722,702,-0.009140640497,702,0.008791428991,702,0.09197448939,
701,-0.009297611192,701,-0.009859895334,701,-0.008974689059,701,0.008796157315,701,0.09174392372,
700,-0.009283523075,700,-0.009525589645,700,-0.008527473547,700,0.007545279339,700,0.09119223058,
699,-0.009418708272,699,-0.009549597278,699,-0.009187276475,699,0.008954891004,699,0.09258461744,
698,-0.009551876225,698,-0.00936069712,698,-0.008633458987,698,0.008670357987,698,0.09223158658,
697,-0.00917105563,697,-0.009050244465,697,-0.00901069399,697,0.009047309868,697,0.09326731414,
696,-0.009385321289,696,-0.009341797791,696,-0.009093645029,696,0.008269379847,696,0.09369184077,
695,-0.008922857232,695,-0.008687254041,695,-0.008212157525,695,0.008086421527,695,0.09266074747,
694,-0.009226304479,694,-0.009123962373,694,-0.008669288829,694,0.007876969874,694,0.09355096519,
693,-0.00912213698,693,-0.008911444806,693,-0.009030418471,693,0.008607801981,693,0.09533186257,
692,-0.009353096597,692,-0.009866525419,692,-0.009059675969,692,0.008859506808,692,0.09583593905,
691,-0.009165632538,691,-0.009166747332,691,-0.008810296655,691,0.008465955965,691,0.09538392723,
690,-0.009468049742,690,-0.008543971926,690,-0.00878985133,690,0.008432197385,690,0.09560360014,
689,-0.009515460581,689,-0.009445152245,689,-0.007855786942,689,0.007133549079,689,0.09569190443,
688,-0.009142111056,688,-0.00913151633,688,-0.008913575672,688,0.008324181661,688,0.09673000872,
687,-0.009414351545,687,-0.009557649493,687,-0.008822066709,687,0.008592302911,687,0.09704975039,
686,-0.009865006432,686,-0.009580287151,686,-0.008242689073,686,0.007619484793,686,0.09688531607,
685,-0.008887656964,685,-0.008927929215,685,-0.008749312721,685,0.007617298048,685,0.0979623124,
684,-0.00974221155,684,-0.00946855545,684,-0.008520315401,684,0.007852245122,684,0.09817764908,
683,-0.009213025682,683,-0.009519157931,683,-0.009094557725,683,0.008707330562,683,0.0982496962,
682,-0.009621963836,682,-0.009560688399,682,-0.009178203531,682,0.00833777152,682,0.09871973842,
681,-0.009117472917,681,-0.009832919575,681,-0.009066976607,681,0.008411584422,681,0.1001220047,
680,-0.009129285812,680,-0.009398645721,680,-0.008942992426,680,0.007994998246,680,0.09987475723,
679,-0.009449965321,679,-0.00930739101,679,-0.009399102069,679,0.008683799766,679,0.1007155627,
678,-0.009122846648,678,-0.009631685913,678,-0.009333386086,678,0.00779423397,678,0.1010927111,
677,-0.009669155814,677,-0.009516574442,677,-0.009195336141,677,0.008833906613,677,0.1010444909,
676,-0.009573754855,676,-0.009481269866,676,-0.008911394514,676,0.007844073698,676,0.1015407592,
675,-0.009863438085,675,-0.009322187863,675,-0.008635438047,675,0.007364837918,675,0.10159868,
674,-0.009440188296,674,-0.009484208189,674,-0.009563169442,674,0.008793330751,674,0.1037609652,
673,-0.009611431509,673,-0.009761599824,673,-0.008893591352,673,0.008059469983,673,0.1023965552,
672,-0.009567018598,672,-0.009455942549,672,-0.009135166183,672,0.007970398292,672,0.1034378186,
671,-0.009291732684,671,-0.009447077289,671,-0.008928131312,671,0.008376800455,671,0.1034800634,
670,-0.009465719573,670,-0.008575139567,670,-0.008932543918,670,0.008001089096,670,0.1040842161,
669,-0.008807607926,669,-0.009436844848,669,-0.009091566317,669,0.008182534017,669,0.1048870981,
668,-0.009501430206,668,-0.00967330765,668,-0.008834546432,668,0.00835291855,668,0.1048085093,
667,-0.009542354383,667,-0.009657155722,667,-0.009557801299,667,0.008051373996,667,0.1061507389,
666,-0.009758461267,666,-0.009882011451,666,-0.01035437454,666,0.00948408898,666,0.1076785028,
665,-0.009871738032,665,-0.009928769432,665,-0.00968798995,665,0.008725897409,665,0.106073007,
664,-0.00980017148,664,-0.009669560939,664,-0.00977759622,664,0.008259617724,664,0.1072868779,
663,-0.01025568601,663,-0.01026321948,663,-0.009436084889,663,0.008280830458,663,0.1071637198,
662,-0.01043803059,662,-0.01026251167,662,-0.009403661825,662,0.008155100979,662,0.1078778356,
661,-0.01024370175,661,-0.01035892498,661,-0.009758309461,661,0.008469598368,661,0.1087455973,
660,-0.01001523901,660,-0.01021270454,660,-0.01039501652,660,0.00876033958,660,0.1102376208,
659,-0.009900128469,659,-0.009987210855,659,-0.01074713934,659,0.009184376337,659,0.1100980043,
658,-0.01067596953,658,-0.01075658388,658,-0.01022499241,658,0.008911555633,658,0.1102495641,
657,-0.0106869312,657,-0.01019707881,657,-0.0103449719,657,0.008810580708,657,0.1106094047,
656,-0.01106127724,656,-0.01054173149,656,-0.01013967674,656,0.008368593641,656,0.1106415987,
655,-0.01045946032,655,-0.0105741201,655,-0.01063525304,655,0.008516796865,655,0.1116066352,
654,-0.01072895713,654,-0.01084086951,654,-0.01011024043,654,0.008363763802,654,0.1115161106,
653,-0.01087464951,653,-0.01087747701,653,-0.01066258363,653,0.008912296034,653,0.1129525527,
652,-0.01096587814,652,-0.01060994249,652,-0.01026670821,652,0.007811997551,652,0.1126061976,
651,-0.01093301363,651,-0.01099697407,651,-0.01076476555,651,0.008722093888,651,0.1133323237,
650,-0.01084243506,650,-0.01095916424,650,-0.01006840821,650,0.007866346277,650,0.1132705957,
649,-0.01123228669,649,-0.01118334662,649,-0.01054511685,649,0.008509246632,649,0.1145984679,
648,-0.0108467266,648,-0.01090973988,648,-0.01072042063,648,0.00879005529,648,0.1150500774,
647,-0.01112446096,647,-0.01119555719,647,-0.01053637546,647,0.008327876218,647,0.1150299013,
646,-0.01145567279,646,-0.01126396749,646,-0.0109417988,646,0.008746788837,646,0.1161962375,
645,-0.01133050118,645,-0.01140615344,645,-0.01058528665,645,0.008867274038,645,0.1163578629,
644,-0.01121886633,644,-0.01147261448,644,-0.01052227709,644,0.008394245058,644,0.1167646348,
643,-0.01156528108,643,-0.01121190377,643,-0.01110155042,643,0.008903391659,643,0.117223829,
642,-0.01203345135,642,-0.01158433594,642,-0.01108060684,642,0.008573398925,642,0.1183642596,
641,-0.01134033687,641,-0.01130311284,641,-0.01119580958,641,0.008276794106,641,0.1191445515,
640,-0.01205565874,640,-0.01161170751,640,-0.01167219039,640,0.009418161586,640,0.1198545098,
639,-0.01168937609,639,-0.01148411073,639,-0.01089206897,639,0.008198413998,639,0.1196240038,
638,-0.01110296324,638,-0.01180648245,638,-0.01110725291,638,0.008714487776,638,0.120196797,
637,-0.01147700101,637,-0.01188250445,637,-0.01072799694,637,0.007986745797,637,0.1205945387,
636,-0.01191600226,636,-0.01177569758,636,-0.01163958106,636,0.008576461114,636,0.1212523505,
635,-0.01137816347,635,-0.0119587658,635,-0.01169411279,635,0.009654190391,635,0.1225351393,
634,-0.01171351504,634,-0.01156029012,634,-0.01121240854,634,0.008382210508,634,0.1224062368,
633,-0.01206240617,633,-0.01207076479,633,-0.01141154859,633,0.00850116834,633,0.1233600825,
632,-0.01274823584,632,-0.0112207327,632,-0.01177529432,632,0.008749324828,632,0.1236913428,
631,-0.01172561012,631,-0.01163489372,631,-0.01169834659,631,0.008773308247,631,0.1239065975,
630,-0.0118865855,630,-0.01194441039,630,-0.01218061987,630,0.009107047692,630,0.1256624609,
629,-0.01236900222,629,-0.01227087062,629,-0.01182870101,629,0.009023364633,629,0.1255484819,
628,-0.01247012988,628,-0.01209790353,628,-0.01140136179,628,0.008369332179,628,0.1254797429,
627,-0.01239853818,627,-0.01227127295,627,-0.0120479539,627,0.008703289554,627,0.1258257031,
626,-0.01255031116,626,-0.01235566754,626,-0.01199850254,626,0.008728406392,626,0.1266946197,
625,-0.01224152744,625,-0.01239531767,625,-0.01209171023,625,0.00893795304,625,0.1272346973,
624,-0.01258808281,624,-0.01278418116,624,-0.01219718158,624,0.008911714889,624,0.1283202469,
623,-0.01278443262,623,-0.01251505129,623,-0.01252556406,623,0.009117675014,623,0.1288091838,
622,-0.01254694164,622,-0.01265944261,622,-0.01235662401,622,0.009225173853,622,0.1293143034,
621,-0.0128405299,621,-0.01283821836,621,-0.01231299434,621,0.009018528275,621,0.1298886538,
620,-0.01275467128,620,-0.01251585688,620,-0.01248592604,620,0.008920117281,620,0.1304021031,
619,-0.01282163057,619,-0.01239053812,619,-0.01255041175,619,0.009285650216,619,0.1311575472,
618,-0.01299134549,618,-0.0126900645,618,-0.01286606304,618,0.009304188192,618,0.1319094896,
617,-0.01281268336,617,-0.01312010735,617,-0.01254653931,617,0.008892981336,617,0.1321544796,
616,-0.01298129559,616,-0.01310071722,616,-0.01249387395,616,0.009168750606,616,0.1323300153,
615,-0.01315637212,615,-0.01319298614,615,-0.01272214297,615,0.009612082504,615,0.13349621,
614,-0.01323487051,614,-0.0133732995,614,-0.01275386661,614,0.009086588398,614,0.1338616908,
613,-0.01314120367,613,-0.01356668491,613,-0.01317103859,613,0.009258808568,613,0.1348391473,
612,-0.01315677445,612,-0.01290385798,612,-0.01301616617,612,0.009213539772,612,0.1349048018,
611,-0.01359960157,611,-0.01292632148,611,-0.01259125117,611,0.008660190739,611,0.1354038864,
610,-0.01360953599,610,-0.01313402038,610,-0.01281032059,610,0.009139510803,610,0.1364802271,
609,-0.01337580942,609,-0.01378275454,609,-0.01319901273,609,0.009447605349,609,0.1372462809,
608,-0.01326906774,608,-0.01340422221,608,-0.01337686367,608,0.009425885975,608,0.1376715004,
607,-0.01377934404,607,-0.01342786569,607,-0.0132740885,607,0.009139960632,607,0.1388674527,
606,-0.01372020692,606,-0.01363186259,606,-0.01361360028,606,0.009531635791,606,0.1392855942,
605,-0.01372396946,605,-0.01331174746,605,-0.01323446818,605,0.009346610866,605,0.1398542523,
604,-0.01360542141,604,-0.0137426788,604,-0.01352819521,604,0.009571063332,604,0.1404499412,
603,-0.0142727904,603,-0.0134072341,603,-0.01345868409,603,0.008990117349,603,0.1411777139,
602,-0.01397645939,602,-0.01379464101,602,-0.0133471936,602,0.00882862322,602,0.1421286762,
601,-0.01415183675,601,-0.01399199944,601,-0.0135154482,601,0.009636933915,601,0.1426118016,
600,-0.01399380434,600,-0.01402914524,600,-0.01383877359,600,0.00919177942,600,0.1436241567,
599,-0.01408217475,599,-0.01377919316,599,-0.01386896148,599,0.009642941877,599,0.1443742067,
598,-0.01431998052,598,-0.01417914685,598,-0.01379494183,598,0.009386550635,598,0.1446538121,
597,-0.01452340931,597,-0.01443658024,597,-0.01355980989,597,0.009266583249,597,0.1446879804,
596,-0.01452115644,596,-0.01408392936,596,-0.01360878348,596,0.009449536912,596,0.1455424428,
595,-0.01463479921,595,-0.01476022229,595,-0.01413043775,595,0.009659272619,595,0.1471336633,
594,-0.0143251894,594,-0.01426537614,594,-0.01393745467,594,0.009603163227,594,0.1472251713,
593,-0.0141244242,593,-0.01443132199,593,-0.01418039948,593,0.009548041038,593,0.1484690309,
592,-0.0148546407,592,-0.01429323014,592,-0.01429638639,592,0.009979126044,592,0.1492494047,
591,-0.01488806028,591,-0.01433130074,591,-0.01394186635,591,0.009519279003,591,0.1495346427,
590,-0.01468054764,590,-0.01460521482,590,-0.01432614122,590,0.009610970505,590,0.1504313648,
589,-0.01489191223,589,-0.01458619162,589,-0.0142691331,589,0.009640480392,589,0.1513190866,
588,-0.01507577207,588,-0.01475206483,588,-0.01421712805,588,0.009083601646,588,0.152002424,
587,-0.01494193636,587,-0.01505346876,587,-0.01462829113,587,0.009514250793,587,0.1533093899,
586,-0.01483342703,586,-0.01467619371,586,-0.01451705024,586,0.009666842408,586,0.1534392089,
585,-0.01490722038,585,-0.01441940293,585,-0.01434422471,585,0.009448610246,585,0.1543599516,
584,-0.01506407093,584,-0.0145840887,584,-0.01454729121,584,0.009396470152,584,0.1550645679,
583,-0.01462653931,583,-0.01500085741,583,-0.01457132306,583,0.009462156333,583,0.1557636708,
582,-0.01490681991,582,-0.01543311495,582,-0.0143245887,582,0.009556429461,582,0.1560691446,
581,-0.01537460275,581,-0.0150078591,581,-0.01465902571,581,0.009725289419,581,0.1570622623,
580,-0.01555601042,580,-0.01515452377,580,-0.01478849538,580,0.009688520804,580,0.157954976,
579,-0.01549576595,579,-0.01534841675,579,-0.01514687389,579,0.009760101326,579,0.1592274159,
578,-0.01563147828,578,-0.01522571314,578,-0.01471583266,578,0.009306410328,578,0.1596197784,
577,-0.0156223895,577,-0.01541522704,577,-0.0152058173,577,0.01005136315,577,0.160596028,
576,-0.01518547069,576,-0.01515242364,576,-0.01517437212,576,0.009916063398,576,0.1613237858,
575,-0.01577823237,575,-0.01561284997,575,-0.01510982495,575,0.009431547485,575,0.1618961692,
574,-0.01593536697,574,-0.01558837667,574,-0.01479695179,574,0.00938401185,574,0.1623776853,
573,-0.01559856627,573,-0.01549276896,573,-0.01541987434,573,0.01008087676,573,0.1636340469,
572,-0.01562833227,572,-0.01593801193,572,-0.01518722065,572,0.009635981172,572,0.1641048044,
571,-0.01632980071,571,-0.0158511661,571,-0.01524010953,571,0.009535445832,571,0.1653353125,
570,-0.01577608474,570,-0.01559771691,570,-0.01529464126,570,0.01006545778,570,0.1658852398,
569,-0.01631015539,569,-0.01565000601,569,-0.01610885747,569,0.01062694006,569,0.1671872139,
568,-0.01618866995,568,-0.0164971035,568,-0.01554861758,568,0.009976079687,568,0.1676669866,
567,-0.01606011577,567,-0.01573329791,567,-0.0157940574,567,0.01068570185,567,0.1688369513,
566,-0.01603781432,566,-0.01578916609,566,-0.01523366105,566,0.009664592333,566,0.1687242091,
565,-0.01549391728,565,-0.01565070637,565,-0.01573863998,565,0.0102118291,565,0.1703965813,
564,-0.01612901129,564,-0.01608915254,564,-0.01547298487,564,0.009970120154,564,0.171222344,
563,-0.01554247364,563,-0.01581527479,563,-0.01549931336,563,0.009880363941,563,0.1717410088,
562,-0.0164259728,562,-0.01595792361,562,-0.01591315866,562,0.01019526552,562,0.1732708365,
561,-0.01600937173,561,-0.01605392992,561,-0.0155465696,561,0.01035175472,561,0.1734460592,
560,-0.0165379215,560,-0.01601471193,560,-0.01580573991,560,0.01037495211,560,0.1748127788,
559,-0.01635901816,559,-0.01604604535,559,-0.01563817076,559,0.01018972695,559,0.1756277531,
558,-0.01633209363,558,-0.01639546268,558,-0.01598292589,558,0.01028301846,558,0.1765781641,
557,-0.01663026027,557,-0.01628995873,557,-0.01606171206,557,0.01023006253,557,0.1771328002,
556,-0.01655421779,556,-0.01632840373,556,-0.01655690931,556,0.01135713141,556,0.1787516624,
555,-0.01686801948,555,-0.01653024741,555,-0.01605327986,555,0.01046008989,555,0.1792280823,
554,-0.01664864644,554,-0.01618423127,554,-0.0157654006,554,0.01053216867,554,0.1795965433,
553,-0.01654295623,553,-0.01648459211,553,-0.01640014909,553,0.01039653365,553,0.1806848049,
552,-0.01694858819,552,-0.01671461016,552,-0.01637058519,552,0.01032434404,552,0.1816382557,
551,-0.01677872054,551,-0.01690387353,551,-0.0166125726,551,0.01069780067,551,0.1823225021,
550,-0.01717651822,550,-0.01684750244,550,-0.01625759527,550,0.01008029375,550,0.1833125204,
549,-0.0165186841,549,-0.01648808084,549,-0.01676028967,549,0.01094840933,549,0.1845649779,
548,-0.01719468273,548,-0.01674375124,548,-0.0166265741,548,0.0105619533,548,0.1853715032,
547,-0.01697089337,547,-0.01701161824,547,-0.01699698158,547,0.01109345909,547,0.1862245947,
546,-0.0165985208,546,-0.01759911142,546,-0.01684725285,546,0.01117770188,546,0.1877523959,
545,-0.01715198345,545,-0.01680900343,545,-0.01647148281,545,0.01021299511,545,0.1874256134,
544,-0.01734453999,544,-0.01695720106,544,-0.01674454845,544,0.01100838277,544,0.1887416542,
543,-0.0175818596,543,-0.01702789776,543,-0.01671346463,543,0.01075959671,543,0.1892359257,
542,-0.01708763093,542,-0.0172037892,542,-0.01657619514,542,0.01030403841,542,0.1903659403,
541,-0.01733971573,541,-0.01728339866,541,-0.01700285636,541,0.01118418295,541,0.1918573081,
540,-0.01723747514,540,-0.01762451418,540,-0.01702137664,540,0.01083713956,540,0.1933162361,
539,-0.01751528122,539,-0.01767243631,539,-0.01685686409,539,0.01108891796,539,0.1931301951,
538,-0.01735329628,538,-0.0173132997,538,-0.01707135327,538,0.01065943763,538,0.1947206259,
537,-0.01752691716,537,-0.01748892665,537,-0.01679132134,537,0.01068655122,537,0.196053952,
536,-0.01760617085,536,-0.01723255031,536,-0.01701739244,536,0.0115497401,536,0.1968013048,
535,-0.01759736985,535,-0.01776428521,535,-0.01700325496,535,0.01150114834,535,0.1973826885,
534,-0.01799650677,534,-0.01757813059,534,-0.01690661348,534,0.01085999142,534,0.1983878911,
533,-0.01750478894,533,-0.01773088798,533,-0.01706607826,533,0.01148171816,533,0.1997372061,
532,-0.01763097756,532,-0.01746137626,532,-0.01739463024,532,0.01110384241,532,0.201271981,
531,-0.01717378199,531,-0.0176876951,531,-0.01706080139,531,0.01111605857,531,0.2016626447,
530,-0.01752880588,530,-0.01733891852,530,-0.01658302173,530,0.011307179,530,0.2024974674,
529,-0.01784533262,529,-0.01739055291,529,-0.0170751363,529,0.01142189186,529,0.2042376697,
528,-0.01745142974,528,-0.01788930409,528,-0.01697811298,528,0.01130104158,528,0.2048577964,
527,-0.01755466312,527,-0.01743069105,527,-0.01702491008,527,0.01142159943,527,0.2060444355,
526,-0.01747271419,526,-0.01763122529,526,-0.01745550707,526,0.01156199537,526,0.2073531896,
525,-0.01761561632,525,-0.01734787412,525,-0.01722672768,525,0.01179403253,525,0.2081208229,
524,-0.01791960932,524,-0.01800698787,524,-0.01738145016,524,0.01196062472,524,0.2100259662,
523,-0.01730787754,523,-0.01785845123,523,-0.01696691103,523,0.01149628405,523,0.21071738,
522,-0.01745137945,522,-0.01775732823,522,-0.01716581918,522,0.01178815402,522,0.2111737132,
521,-0.01786972955,521,-0.01787931845,521,-0.01725409366,521,0.01163952239,521,0.2126298845,
520,-0.01813049614,520,-0.01722568274,520,-0.01719682291,520,0.01200761832,520,0.2136616856,
519,-0.01813794486,519,-0.01750190556,519,-0.01725369692,519,0.01176626422,519,0.2149374932,
518,-0.01782063767,518,-0.01722702757,518,-0.01731847413,518,0.01256903447,518,0.2161789536,
517,-0.01780607924,517,-0.01763232052,517,-0.01678878069,517,0.01111836918,517,0.2169114947,
516,-0.01812786609,516,-0.01754372381,516,-0.01700265706,516,0.01151792053,516,0.2179060429,
515,-0.01751408726,515,-0.01746346429,515,-0.0173157379,515,0.01235139091,515,0.2194339931,
514,-0.01839478128,514,-0.01763306558,514,-0.01733225398,514,0.01229101885,514,0.2209382802,
513,-0.01759389043,513,-0.01813898794,513,-0.01695670374,513,0.01140812598,513,0.2214363515,
512,-0.01784284972,512,-0.0179487709,512,-0.01720647514,512,0.01202153694,512,0.2228328288,
511,-0.01807577349,511,-0.01731747761,511,-0.0171812959,511,0.01221606415,511,0.2241212428,
510,-0.01772497222,510,-0.01773362048,510,-0.01713595912,510,0.01210220624,510,0.2253905237,
509,-0.01770767756,509,-0.01712087914,509,-0.01738493145,509,0.01259560231,509,0.2263019532,
508,-0.01784925908,508,-0.01810209267,508,-0.01738980599,508,0.01231650356,508,0.2282444239,
507,-0.01773401909,507,-0.01777740568,507,-0.01704387739,507,0.01202906761,507,0.2285777032,
506,-0.01814484783,506,-0.01770588756,506,-0.01747166924,506,0.01304194052,506,0.2308416963,
505,-0.0177879408,505,-0.01795269549,505,-0.01721090451,505,0.0123353051,505,0.2313604802,
504,-0.01786317118,504,-0.01793118566,504,-0.01763510332,504,0.01279401314,504,0.2334275693,
503,-0.0178081654,503,-0.01818819158,503,-0.01815065742,503,0.01307509933,503,0.234703511,
502,-0.01760273986,502,-0.01804821007,502,-0.01721413992,502,0.01291151904,502,0.2353803068,
501,-0.01813019998,501,-0.01814042777,501,-0.01712107845,501,0.01242484991,501,0.236718297,
500,-0.01841934398,500,-0.01795642078,500,-0.01785854995,500,0.01332009118,500,0.2383351624,
499,-0.01808421686,499,-0.01824533381,499,-0.01766105182,499,0.01321216114,499,0.2396416664,
498,-0.01827630959,498,-0.01799501665,498,-0.01760283858,498,0.01299947593,498,0.2404881418,
497,-0.01845556684,497,-0.01796769723,497,-0.01763062924,497,0.01303807274,497,0.2412265837,
496,-0.01839006506,496,-0.01792880148,496,-0.01757002622,496,0.01356602274,496,0.243065387,
495,-0.01852844842,495,-0.01807636954,495,-0.01769485325,495,0.01325405948,495,0.2443666309,
494,-0.01863400638,494,-0.01816967316,494,-0.01771945693,494,0.01347437315,494,0.2468375117,
493,-0.01836857758,493,-0.01804289594,493,-0.01789566502,493,0.01343653817,493,0.2468424886,
492,-0.01870978437,492,-0.01823987253,492,-0.01754795015,492,0.01274117641,492,0.2483487278,
491,-0.01867536828,491,-0.01851381361,491,-0.01812141016,491,0.01369661465,491,0.2500954866,
490,-0.01824945398,490,-0.0182896629,490,-0.01804970019,490,0.01296026912,490,0.2514903545,
489,-0.01846350543,489,-0.01829179563,489,-0.01828971133,489,0.01361428574,489,0.2529795766,
488,-0.01858614199,488,-0.01876041107,488,-0.01787802763,488,0.01303601917,488,0.2546725273,
487,-0.01837989315,487,-0.0179060474,487,-0.01787767932,487,0.01338108722,487,0.2551639378,
486,-0.01849089377,486,-0.01825372316,486,-0.01790063269,486,0.01323620602,486,0.2569677234,
485,-0.01828186959,485,-0.01794176735,485,-0.01753363013,485,0.01327690482,485,0.2579060793,
484,-0.01857984252,484,-0.01853688248,484,-0.01753924787,484,0.01321023982,484,0.259065032,
483,-0.01892663166,483,-0.01857269928,483,-0.01753169112,483,0.01291506551,483,0.2607017756,
482,-0.01932642981,482,-0.01894809306,482,-0.01789998636,482,0.01343450882,482,0.2631852329,
481,-0.01866163127,481,-0.01874737069,481,-0.01889912225,481,0.01424858347,481,0.2653239071,
480,-0.01899908856,480,-0.01872857846,480,-0.01837353967,480,0.01332500204,480,0.2661425769,
479,-0.01909571141,479,-0.01842227206,479,-0.01823401637,479,0.01350833848,479,0.2680002451,
478,-0.01959627308,478,-0.01870398223,478,-0.01859125122,478,0.01448091026,478,0.2692419291,
477,-0.01906737126,477,-0.01889882609,477,-0.01783549599,477,0.01344820578,477,0.2702546418,
476,-0.01928290166,476,-0.0192333255,476,-0.01834574901,476,0.01428250317,476,0.2726264298,
475,-0.01919543371,475,-0.01889114268,475,-0.01848781668,475,0.01472259965,475,0.2742363214,
474,-0.01923342422,474,-0.01889039949,474,-0.01830971427,474,0.01433237083,474,0.2753125131,
473,-0.01918646879,473,-0.01843348518,473,-0.01833999157,473,0.01448829751,473,0.2764847577,
472,-0.0194348637,472,-0.01841209829,472,-0.01869758591,472,0.01532945037,472,0.2776176929,
471,-0.01868766733,471,-0.01880662143,471,-0.01825407147,471,0.01404897217,471,0.2801721692,
470,-0.0190512687,470,-0.01855632849,470,-0.01796764694,470,0.01485244185,470,0.2811713219,
469,-0.01879333332,469,-0.0188458357,469,-0.01823088713,469,0.01496294979,469,0.2835013866,
468,-0.01884558611,468,-0.01869594865,468,-0.01881534606,468,0.01535881497,468,0.2852555513,
467,-0.01930865273,467,-0.01878797822,467,-0.01794633642,467,0.01477669552,467,0.2865948677,
466,-0.01867308654,466,-0.01864496619,466,-0.01805570908,466,0.01468861941,466,0.288291961,
465,-0.01940169185,465,-0.01849912852,465,-0.01778664812,465,0.0148595674,465,0.2898128033,
464,-0.01907346584,464,-0.01798423752,464,-0.01836505346,464,0.01561897248,464,0.2918192148,
463,-0.01863048412,463,-0.01881747879,463,-0.0181677863,463,0.01577353664,463,0.2935026884,
462,-0.01878336817,462,-0.01853013597,462,-0.01806872152,462,0.01537619345,462,0.2946655154,
461,-0.01880325004,461,-0.01835959405,461,-0.01750916615,461,0.01435843017,461,0.2961121798,
460,-0.01887637191,460,-0.01857339405,460,-0.01804359257,460,0.01543385815,460,0.2983077168,
459,-0.01865384355,459,-0.01853990927,459,-0.01859268919,459,0.01644140296,459,0.3008737266,
458,-0.01853241771,458,-0.01834897324,458,-0.01789934002,458,0.01556573715,458,0.3015445471,
457,-0.01913494989,457,-0.01865374483,457,-0.01821510121,457,0.01644035429,457,0.3041135669,
456,-0.0191396568,456,-0.01856114157,456,-0.01813218556,456,0.01579997689,456,0.3057581186,
455,-0.01904492639,455,-0.01847407408,455,-0.01795681752,455,0.01622240245,455,0.3065663576,
454,-0.01892400533,454,-0.01879164763,454,-0.0179129038,454,0.01604887657,454,0.3087311089,
453,-0.01899814792,453,-0.01857150905,453,-0.01799526438,453,0.01594507322,453,0.3110565245,
452,-0.01860385016,452,-0.018702792,452,-0.01818129048,452,0.01578059606,452,0.3125189841,
451,-0.01870690845,451,-0.01870591566,451,-0.01774107665,451,0.01559315901,451,0.3141345084,
450,-0.01886199601,450,-0.01836475544,450,-0.01844584197,450,0.01672494225,450,0.3172618747,
449,-0.01899968274,449,-0.01821445487,449,-0.01769196987,449,0.01587979496,449,0.3178307116,
448,-0.01952515356,448,-0.01811276935,448,-0.01827010512,448,0.01580088958,448,0.3201437891,
447,-0.01864893362,447,-0.01839532703,447,-0.01865488663,447,0.01731563359,447,0.3230524361,
446,-0.01982657798,446,-0.01876591519,446,-0.01828698255,446,0.01672703959,446,0.3246196806,
445,-0.01874861121,445,-0.01926467754,445,-0.01784096099,445,0.01645366289,445,0.326282382,
444,-0.01900582761,444,-0.0186838489,444,-0.0179395806,444,0.01656199805,444,0.3284501731,
443,-0.01934019662,443,-0.0187208429,443,-0.01874841191,443,0.01754327305,443,0.3310441077,
442,-0.01918651909,442,-0.01921613887,442,-0.01846782118,442,0.01709592156,442,0.3332814872,
441,-0.01897624321,441,-0.01890526898,441,-0.0186469499,441,0.0173187051,441,0.3348811567,
440,-0.01905344799,440,-0.01836808212,440,-0.01816252246,440,0.01706587337,440,0.336386025,
439,-0.01896177232,439,-0.01884107664,439,-0.01832713559,439,0.01730092615,439,0.3383087814,
438,-0.01908332482,438,-0.01833914779,438,-0.01858683676,438,0.01762511022,438,0.3418342769,
437,-0.01874315552,437,-0.0187404789,437,-0.01856391877,437,0.01791746169,437,0.3426092565,
436,-0.01888742484,436,-0.01814519428,436,-0.01863846928,436,0.01753815264,436,0.3457452059,
435,-0.01949911751,435,-0.01872798242,435,-0.01854591072,435,0.01819189638,435,0.347175777,
434,-0.01905959286,434,-0.01887002587,434,-0.01897391304,434,0.01893225312,434,0.3496150076,
433,-0.0193279162,433,-0.01901985146,433,-0.01894943044,433,0.01815772429,433,0.3519224226,
432,-0.01924238913,432,-0.01895830221,432,-0.01934188046,432,0.01890613325,432,0.3547103703,
431,-0.0196593646,431,-0.01887741126,431,-0.01863207109,431,0.01806021668,431,0.3557499051,
430,-0.0193915423,430,-0.01971413568,430,-0.01925085858,430,0.01911881007,430,0.3580014706,
429,-0.01982257143,429,-0.01882188953,429,-0.01914223284,429,0.01921368763,429,0.3617502749,
428,-0.01884201728,428,-0.01936035044,428,-0.01933881082,428,0.01925711706,428,0.362827301,
427,-0.01954598911,427,-0.01908912323,427,-0.01816416159,427,0.01829334907,427,0.364330858,
426,-0.019563362,426,-0.01958464272,426,-0.01887567714,426,0.01879129186,426,0.3671728969,
425,-0.01879164763,425,-0.01890432835,425,-0.01845933683,425,0.01897340827,425,0.3689033687,
424,-0.01940411888,424,-0.01870670915,424,-0.01909259148,424,0.01954843104,424,0.3720472753,
423,-0.01993167028,423,-0.01957722008,423,-0.01908927038,423,0.01934612542,423,0.3740118146,
422,-0.01846831851,422,-0.01871087588,422,-0.01839254797,422,0.01876434311,422,0.3756876588,
421,-0.01892013848,421,-0.01935227774,421,-0.01898759231,421,0.01963256858,421,0.3791067898,
420,-0.01929350011,420,-0.01924451999,420,-0.0188338384,420,0.0200249888,420,0.381279856,
419,-0.01935222931,419,-0.01956464909,419,-0.01883725822,419,0.02040183917,419,0.3838736415,
418,-0.01934500039,418,-0.01945085265,418,-0.01891374588,418,0.01987199485,418,0.3868859708,
417,-0.01934188046,417,-0.019077776,417,-0.01886893623,417,0.01967996731,417,0.3881719112,
416,-0.02004138567,416,-0.01937490702,416,-0.01845581457,416,0.01999270543,416,0.3899473846,
415,-0.01956964657,415,-0.01969083399,415,-0.01922114193,415,0.02041855268,415,0.3942533731,
414,-0.0199507568,414,-0.01963625662,414,-0.01856748946,414,0.02027016506,414,0.3955453336,
413,-0.01952975616,413,-0.01976207457,413,-0.01906256564,413,0.02087903768,413,0.3981617391,
412,-0.01970260963,412,-0.01967697963,412,-0.01894492097,412,0.02037180588,412,0.4005909562,
411,-0.01981000789,411,-0.01942520961,411,-0.01913168095,411,0.02128528245,411,0.4040402174,
410,-0.01977884397,410,-0.01955094002,410,-0.01842882112,410,0.02003499307,410,0.4059052467,
409,-0.01938426495,409,-0.01988385059,409,-0.01950946264,409,0.02170167677,409,0.4094798267,
408,-0.01947852597,408,-0.01988938823,408,-0.01877518743,408,0.02105591819,408,0.4110030234,
407,-0.02016095631,407,-0.01960423961,407,-0.01877994649,407,0.02145204693,407,0.412571013,
406,-0.01959414408,406,-0.01892628521,406,-0.01969503984,406,0.0222114455,406,0.416868329,
405,-0.01966792531,405,-0.01899755187,405,-0.01900582761,405,0.02237442322,405,0.418448478,
404,-0.01940030605,404,-0.01966599561,404,-0.01918007806,404,0.02215254679,404,0.4226306379,
403,-0.01967049763,403,-0.02037910745,403,-0.01942278259,403,0.02285925299,403,0.4250393808,
402,-0.01952352002,402,-0.01954490133,402,-0.01952361874,402,0.02241579816,402,0.4286702871,
401,-0.02010495588,401,-0.01938639395,401,-0.01893783361,401,0.02197508328,401,0.4310618937,
400,-0.02020533755,400,-0.01934341528,400,-0.01945595257,400,0.02284176275,400,0.4335367382,
399,-0.02046608925,399,-0.01873938739,399,-0.01920093223,399,0.02303841524,399,0.4348729551,
398,-0.02003584802,398,-0.01941278204,398,-0.01997078396,398,0.02326694503,398,0.4398371577,
397,-0.01996158622,397,-0.01999629661,397,-0.01923798211,397,0.02311223,397,0.441296488,
396,-0.02054727636,396,-0.01941040531,396,-0.01950129494,396,0.0243012812,396,0.4434635341,
395,-0.01997340284,395,-0.01908768527,395,-0.01941575296,395,0.02444472723,395,0.4459953606,
394,-0.01966178976,394,-0.0202044975,394,-0.01980417036,394,0.02386040054,394,0.4501563013,
393,-0.02026078105,393,-0.01988355257,393,-0.01953485422,393,0.02353404276,393,0.4522971809,
392,-0.02039945871,392,-0.01939401776,392,-0.01957464591,392,0.02430672944,392,0.4576165974,
391,-0.02095175348,391,-0.02061447687,391,-0.01929919422,391,0.02362887934,391,0.4584780037,
390,-0.02006521262,390,-0.0203655716,390,-0.01996484958,390,0.02450100519,390,0.4623832405,
389,-0.02018601447,389,-0.02048080601,389,-0.02004301734,389,0.02512708865,389,0.4655987322,
388,-0.02022332512,388,-0.02080002613,388,-0.02071128413,388,0.02582593635,388,0.4663333595,
387,-0.0214792043,387,-0.0195352491,387,-0.020457495,387,0.02529429272,387,0.4707274437,
386,-0.02079435065,386,-0.02103043348,386,-0.0199276153,386,0.02641902119,386,0.4716613293,
385,-0.0214858558,385,-0.0205724109,385,-0.02027733438,385,0.02658826485,385,0.4769180715,
384,-0.02039901353,384,-0.02103058249,384,-0.02075314149,384,0.02601319738,384,0.4797129929,
383,-0.02151197009,383,-0.0216821637,383,-0.02055828832,383,0.0264145378,383,0.4825362563,
382,-0.02239998989,382,-0.02229972184,382,-0.01994640566,382,0.02643439919,382,0.4846141934,
381,-0.02096221223,381,-0.02006476745,381,-0.02056979388,381,0.02885324508,381,0.4880563915,
380,-0.01995115355,380,-0.0211938154,380,-0.02026438713,380,0.02634026855,380,0.4886014163,
379,-0.02138650976,379,-0.02099501714,379,-0.02136615478,379,0.02817033976,379,0.4943687022,
378,-0.02046608925,378,-0.02092831954,378,-0.01964209601,378,0.02814595029,378,0.5037624836,
377,-0.02180458419,377,-0.02145772055,377,-0.02057226188,377,0.02930623293,377,0.5062901378,
376,-0.02060465142,376,-0.02081068605,376,-0.01998467743,376,0.02922773175,376,0.5093305707,
375,-0.02062578313,375,-0.02098579332,375,-0.02013362572,375,0.02950109728,375,0.5130391717,
374,-0.02118528634,374,-0.02078581415,374,-0.02050540037,374,0.03033774905,374,0.5163692832,
373,-0.02024205402,373,-0.02085105143,373,-0.01981925592,373,0.03058112413,373,0.5189497471,
372,-0.02079637535,372,-0.02033746243,372,-0.01924149878,372,0.0301840473,372,0.5236667395,
371,-0.01994630694,371,-0.01965189353,371,-0.01984715275,371,0.03170836717,371,0.5269645452,
370,-0.01989838853,370,-0.02017187886,370,-0.01954792067,370,0.03116695024,370,0.5305169821,
369,-0.01997780427,369,-0.01949159242,369,-0.01884033158,369,0.03146333247,369,0.5340483189,
368,-0.01931489259,368,-0.01963699982,368,-0.01849426702,368,0.03208655119,368,0.5385241508,
367,-0.01920316182,367,-0.01936490461,367,-0.01840773225,367,0.03258971497,367,0.5419894457,
366,-0.01944669522,366,-0.01961893775,366,-0.01904006861,366,0.03336449713,366,0.5458989143,
365,-0.01967089437,365,-0.01940500923,365,-0.0185059756,365,0.03292789683,365,0.5491936803,
364,-0.0189754013,364,-0.01910071634,364,-0.0184941683,364,0.03363886103,364,0.5532088876,
363,-0.01885307208,363,-0.01879769564,363,-0.01849476248,363,0.03442524001,363,0.5564169884,
362,-0.0188028533,362,-0.0189145375,362,-0.01819439791,362,0.03423098475,362,0.5599591136,
361,-0.0189517606,361,-0.01901578903,361,-0.01837428473,361,0.03519440815,361,0.5637512207,
360,-0.01869456097,360,-0.0187956132,360,-0.01820571721,360,0.03549503908,360,0.5676918626,
359,-0.01877221279,359,-0.01862220094,359,-0.01798721775,359,0.03595152497,359,0.5706398487,
358,-0.01856158674,358,-0.01864819042,358,-0.01794246212,358,0.03585904837,358,0.5745382905,
357,-0.01852463,357,-0.01897822507,357,-0.01779976673,357,0.0362495333,357,0.5786991119,
356,-0.01886987686,356,-0.01790629514,356,-0.01796988212,356,0.03663098812,356,0.5824946165,
355,-0.01841110736,355,-0.01849481277,355,-0.01802715287,355,0.03740782663,355,0.5864232779,
354,-0.0187035352,354,-0.01859864034,354,-0.01801160723,354,0.03801986575,354,0.5905300975,
353,-0.01895458438,353,-0.01846995577,353,-0.01766403392,353,0.03813233227,353,0.5938279629,
352,-0.01909001358,352,-0.01795517839,352,-0.01777437329,352,0.03873910755,352,0.5975919366,
351,-0.01825918444,351,-0.01842698641,351,-0.01743899658,351,0.03858907893,351,0.6007239223,
350,-0.01851758547,350,-0.01844360866,350,-0.01773307472,350,0.03927155212,350,0.6050310731,
349,-0.01830832474,349,-0.0183196906,349,-0.01783117279,349,0.0400419496,349,0.609249115,
348,-0.01821331307,348,-0.0181206651,348,-0.0175541155,348,0.04004651681,348,0.6129767299,
347,-0.01798702031,347,-0.01812021807,347,-0.01728553884,347,0.04003229737,347,0.6172944307,
346,-0.01825958118,346,-0.01777044684,346,-0.01752209477,346,0.04057136178,346,0.6210156679,
345,-0.01823451184,345,-0.01792741008,345,-0.0175311435,345,0.04127804935,345,0.6247887611,
344,-0.01781889796,344,-0.01779330708,344,-0.0174063202,344,0.04187091067,344,0.6285784245,
343,-0.01762680151,343,-0.01756923087,343,-0.01728991605,343,0.04267001152,343,0.6324980259,
342,-0.01779524609,342,-0.01758911833,342,-0.01736453734,342,0.04306698218,342,0.6368424296,
341,-0.01762411743,341,-0.01721155085,341,-0.01695824787,341,0.04300678894,341,0.6405881643,
340,-0.01772885025,340,-0.01810849831,340,-0.01697940752,340,0.04356604069,340,0.643938005,
339,-0.01770146377,339,-0.01742517017,339,-0.0169584956,339,0.04382742569,339,0.6488683224,
338,-0.01727101021,338,-0.01795443334,338,-0.01711281575,338,0.04480651394,338,0.6530609131,
337,-0.01739234291,337,-0.01717925631,337,-0.01686692424,337,0.04542795569,337,0.656904161,
336,-0.01733230241,336,-0.01722354442,336,-0.01668586396,336,0.04539844021,336,0.6601287127,
335,-0.01724891923,335,-0.01725245267,335,-0.01689481176,335,0.04599393532,335,0.664711833,
334,-0.01739617251,334,-0.01704004407,334,-0.01657923497,334,0.04673210904,334,0.6692967415,
333,-0.01723304763,333,-0.01752149686,333,-0.01658516563,333,0.04699044302,333,0.6728452444,
332,-0.01701609977,332,-0.01702510938,332,-0.01673458703,332,0.04813497886,332,0.6769039035,
331,-0.01703193039,331,-0.01712092943,331,-0.01654599607,331,0.04857707396,331,0.6810026169,
330,-0.01692259684,330,-0.01709778421,330,-0.01651858538,330,0.04909882694,330,0.6849249601,
329,-0.01715626381,329,-0.01698911563,329,-0.01638474502,329,0.04962909967,329,0.6887056231,
328,-0.01655700989,328,-0.01694694534,328,-0.01638080552,328,0.05021302029,328,0.6931518912,
327,-0.01665771566,327,-0.01614487544,327,-0.01630521752,327,0.05103095248,327,0.6967802644,
326,-0.01639611088,326,-0.01653224044,326,-0.01618577726,326,0.05202019215,326,0.700542748,
325,-0.01655531488,325,-0.01651205495,325,-0.01593022607,325,0.05237370729,325,0.7044169903,
324,-0.01667026989,324,-0.01662881672,324,-0.01591061242,324,0.05317260697,324,0.7087119222,
323,-0.01612477191,323,-0.01638255082,323,-0.0157771837,323,0.05369578302,323,0.7126668096,
322,-0.01635981537,322,-0.01631494239,322,-0.01560945343,322,0.05445870757,322,0.716296792,
321,-0.01639980078,321,-0.01590991393,321,-0.01553822774,321,0.05560385063,321,0.721241951,
320,-0.01608700678,320,-0.01592089422,320,-0.01561829355,320,0.05659484491,320,0.7248568535,
319,-0.0160664022,319,-0.01583978534,319,-0.0158847589,319,0.05764692649,319,0.7295321822,
318,-0.01591056213,318,-0.01599185728,318,-0.01541917492,318,0.0584301576,318,0.7321608067,
317,-0.01582091674,317,-0.01622328348,317,-0.01556794811,317,0.05953966454,317,0.7372800112,
316,-0.01590287685,316,-0.01560990326,316,-0.01488405839,316,0.06033036485,316,0.740732193,
315,-0.01576864719,315,-0.01555935666,315,-0.01493158191,315,0.06119596586,315,0.7449032068,
314,-0.01538079884,314,-0.0154797798,314,-0.01485349052,314,0.06222398579,314,0.7485061288,
313,-0.01539783832,313,-0.01557953656,313,-0.01495914347,313,0.06353910267,313,0.752440691,
312,-0.01508467272,312,-0.01509302389,312,-0.01493178215,312,0.06478331983,312,0.7558353543,
311,-0.01526465174,311,-0.01527834777,311,-0.01489426382,311,0.06600019336,311,0.7599685192,
310,-0.01569944434,310,-0.01499660593,310,-0.01493153162,310,0.06704942137,310,0.763785243,
309,-0.01525425538,309,-0.01504286751,309,-0.0146138249,309,0.06829341501,309,0.7678136826,
308,-0.01582920179,308,-0.01637382619,308,-0.01533022616,308,0.06937544793,308,0.7719803452,
307,-0.01512007508,307,-0.01481076144,307,-0.01462623943,307,0.07063826174,307,0.7747184038,
306,-0.0147398049,306,-0.01504851785,306,-0.01468610391,306,0.07175347954,306,0.7783622146,
305,-0.01483687945,305,-0.01488015614,305,-0.01430029329,305,0.072933577,305,0.7813184261,
304,-0.01488796063,304,-0.01492067706,304,-0.01447178423,304,0.07435692102,304,0.7856544852,
303,-0.01494328678,303,-0.01484508533,303,-0.01408598386,303,0.07571613789,303,0.7883806825,
302,-0.01447944622,302,-0.01465061679,302,-0.01442215778,302,0.07733029872,302,0.7928410769,
301,-0.01438519638,301,-0.01467969734,301,-0.0145265637,301,0.07889451087,301,0.7968094945,
300,-0.01456861943,300,-0.01457052212,300,-0.01371960528,300,0.07934299856,300,0.7986270785,
299,-0.01441935264,299,-0.01430585422,299,-0.01404819265,299,0.0810502097,299,0.8025215864,
298,-0.01432954799,298,-0.014169476,298,-0.01391965523,298,0.08210326731,298,0.8056169152,
297,-0.01450187899,297,-0.01427960396,297,-0.01393655222,297,0.0839895159,297,0.8090562224,
296,-0.01453657728,296,-0.01365268417,296,-0.01384047884,296,0.08522829413,296,0.8121051788,
295,-0.01406809129,295,-0.01404112484,295,-0.01369698159,295,0.08678531647,295,0.8158129454,
294,-0.01406563539,294,-0.01395399868,294,-0.01374012139,294,0.08880898356,294,0.8189522624,
293,-0.01440472901,293,-0.01416566689,293,-0.01357190311,293,0.08979082108,293,0.82105726,
292,-0.01448555477,292,-0.01440057158,292,-0.01375461649,292,0.09135506302,292,0.8251923919,
291,-0.01433400624,291,-0.01398778893,291,-0.0140003711,291,0.09358818084,291,0.8292413354,
290,-0.01421211753,290,-0.01390556619,290,-0.01373515557,290,0.0950569734,290,0.8330737948,
289,-0.01380677801,289,-0.0136018591,289,-0.01350676548,289,0.09694421291,289,0.8367838264,
288,-0.01386505086,288,-0.01363677997,288,-0.013410246,288,0.0988304913,288,0.8405870795,
287,-0.0134875942,287,-0.01390426233,287,-0.01369402185,287,0.100959301,287,0.8454957008,
286,-0.01399656199,286,-0.01387071703,286,-0.01363968942,286,0.1033576801,286,0.8501375318,
285,-0.01416631881,285,-0.01395986509,285,-0.01348910015,285,0.1060151085,285,0.8556524515,
284,-0.01420154516,284,-0.01363075897,284,-0.01344618667,284,0.1093292162,284,0.8617192507,
283,-0.01352377888,283,-0.01370816771,283,-0.01307690609,283,0.1124423146,283,0.8676885962,
282,-0.0137199061,282,-0.01355639752,282,-0.01317726634,282,0.1164964885,282,0.8753500581,
281,-0.01368835289,281,-0.01334734447,281,-0.01343072671,281,0.1205799133,281,0.8835967779,
280,-0.01403014734,280,-0.01331897732,280,-0.01312126219,280,0.1256039292,280,0.8928786516,
279,-0.01326851454,279,-0.01350510959,279,-0.01328865066,279,0.131565243,279,0.903693676,
278,-0.01370355301,278,-0.01369377133,278,-0.01303274557,278,0.1383603811,278,0.9155323505,
277,-0.01353868376,277,-0.01335397083,277,-0.01281841379,277,0.1458719969,277,0.9293012023,
276,-0.01359352935,276,-0.01319705416,276,-0.01317897439,276,0.1552622318,276,0.9459534883,
275,-0.01368609536,275,-0.01359322853,275,-0.01294576935,275,0.1655608267,275,0.9630910158,
274,-0.01372176223,274,-0.01347866002,274,-0.01322321966,274,0.1783405989,274,0.9842157364,
273,-0.01402252819,273,-0.01364159584,273,-0.01307062618,273,0.1925787926,273,1.006567359,
272,-0.01370420493,272,-0.01388199907,272,-0.01318680868,272,0.2095046639,272,1.031900764,
271,-0.01403541025,271,-0.01365524251,271,-0.01352633815,271,0.2282188237,271,1.060179234,
270,-0.0138704665,270,-0.01366959047,270,-0.01348834671,270,0.2502473891,270,1.091699123,
269,-0.01406708919,269,-0.01368569396,269,-0.01352578588,269,0.2752343118,269,1.124839306,
268,-0.01408743765,268,-0.01380096003,268,-0.01342254505,268,0.3040434718,268,1.160943866,
267,-0.01370089408,267,-0.01350661553,267,-0.01334297657,267,0.3362333477,267,1.198752403,
266,-0.01330441702,266,-0.01348950155,266,-0.01353707723,266,0.3734350801,266,1.239429832,
265,-0.01331777219,265,-0.01341983397,265,-0.01327559538,265,0.4144569635,265,1.279636979,
264,-0.01338685397,264,-0.01323346421,264,-0.01297802944,264,0.4600764513,264,1.322582006,
263,-0.0131093571,263,-0.01297596935,263,-0.01238933019,263,0.5105503201,263,1.363145351,
262,-0.0129828034,262,-0.01294431183,262,-0.01239828672,262,0.566162467,262,1.409892201,
261,-0.01261383202,261,-0.01280886307,261,-0.0123572778,261,0.6297754645,261,1.45908761,
260,-0.01250187214,260,-0.01283510122,260,-0.01207081508,260,0.6992610097,260,1.50882709,
259,-0.01258561853,259,-0.01242444944,259,-0.01158993132,259,0.7747582793,259,1.562420368,
258,-0.01231515873,258,-0.01215086877,258,-0.01190018561,258,0.8597970009,258,1.621801138,
257,-0.01219174545,257,-0.01215791609,257,-0.01161216106,257,0.951531589,257,1.685961962,
256,-0.01196083054,256,-0.01183570456,256,-0.01165520493,256,1.055150986,256,1.755471826,
255,-0.01172117516,255,-0.01158846915,255,-0.01135314815,255,1.168246031,255,1.834682941,
254,-0.01143056061,254,-0.01094942167,254,-0.0109144859,254,1.295553803,254,1.924022079,
253,-0.01110215578,253,-0.01111880876,253,-0.01089146268,253,1.434961081,253,2.023376942,
252,-0.01095931605,252,-0.01079693623,252,-0.01062292606,252,1.59285152,252,2.137483835,
251,-0.0108224377,251,-0.010573362,251,-0.01064086054,251,1.766602159,251,2.265945673,
250,-0.01061888412,250,-0.01062489673,250,-0.01051575784,250,1.958481908,250,2.416094303,
249,-0.01067758631,249,-0.01049508899,249,-0.01030695438,249,2.161229134,249,2.579707861,
248,-0.01046537329,248,-0.01032288,248,-0.009820012376,248,2.377767086,248,2.768475294,
247,-0.01041164715,247,-0.01040932164,247,-0.009987615049,247,2.59280777,247,2.965500355,
246,-0.01020729356,246,-0.01041493192,246,-0.009941824712,246,2.793193102,246,3.179047108,
245,-0.01047553122,245,-0.01015075296,245,-0.01001503691,245,2.958905458,245,3.398104668,
244,-0.01027621422,244,-0.01023080759,244,-0.01001964044,244,3.086686373,244,3.591507912,
243,-0.01016754471,243,-0.01017786097,243,-0.009948250838,243,3.17706275,243,3.774782896,
242,-0.01015935093,242,-0.01032035146,242,-0.009975573979,242,3.239830017,242,3.949702501,
241,-0.01038212702,241,-0.01027606241,241,-0.01009562239,241,3.277939796,241,4.070118427,
240,-0.01048326399,240,-0.01025169156,240,-0.0102838492,240,3.312796831,240,4.096387863,
239,-0.01056492422,239,-0.01064838842,239,-0.01031236351,239,3.330407619,239,4.198044777,
238,-0.01046223938,238,-0.01046956796,238,-0.01036033966,238,3.369528055,238,4.223957539,
237,-0.01074153278,237,-0.01075027045,237,-0.01023050398,237,3.398855925,237,4.301957607,
236,-0.01091630291,236,-0.01096042618,236,-0.01053789072,236,3.418227673,236,4.288730621,
235,-0.01112693362,235,-0.01101014856,235,-0.01088252664,235,3.440325022,235,4.338482857,
234,-0.01140701026,234,-0.01143651083,234,-0.01075289678,234,3.454855204,234,4.286233902,
233,-0.01160001289,233,-0.01125826687,233,-0.01103977673,233,3.477448702,233,4.359887123,
232,-0.0117100887,232,-0.01172319148,232,-0.01123425364,232,3.492891312,232,4.450928688,
231,-0.01184371486,231,-0.01177549548,231,-0.01157107763,231,3.513320208,231,4.444086075,
230,-0.01223760191,230,-0.01202932186,230,-0.01161609218,230,3.529206991,230,4.480155945,
229,-0.01239798497,229,-0.01227404177,229,-0.01188038941,229,3.545628548,229,4.425647736,
228,-0.01263616048,228,-0.01236185711,228,-0.01203254517,228,3.54886961,228,4.499967575,
227,-0.01282273605,227,-0.01258365717,227,-0.01243270095,227,3.556408882,227,4.536775112,
226,-0.01306645665,226,-0.0131523544,226,-0.01253919583,226,3.566190243,226,4.531533241,
225,-0.0135252839,225,-0.01326469891,225,-0.01281032059,225,3.577801228,225,4.801777363,
224,-0.01361540612,224,-0.01338042784,224,-0.01308604889,224,3.572765589,224,4.514253616,
223,-0.01419012062,223,-0.01342214271,223,-0.01351369172,223,3.581986427,223,4.59224987,
222,-0.01394973788,222,-0.01418726426,222,-0.01340432279,222,3.576004744,222,4.544960499,
221,-0.01418235339,221,-0.01407545898,221,-0.01337299775,221,3.56903553,221,4.576433182,
220,-0.014630544,220,-0.01418801583,220,-0.01361931954,220,3.584344864,220,4.523829937,
219,-0.01474415883,219,-0.01441739965,219,-0.01342219301,219,3.572214842,219,4.488742828,
218,-0.01515332423,218,-0.0146323964,218,-0.01389428414,218,3.573460817,218,4.525300503,
217,-0.01481731609,217,-0.01463785209,217,-0.01406388078,217,3.566636086,217,4.539113045,
216,-0.01534217037,216,-0.01544100977,216,-0.01415243838,216,3.563896894,216,4.444561481,
215,-0.01523421053,215,-0.01517297234,215,-0.01393484697,215,3.561729908,215,4.40188694,
214,-0.01521636546,214,-0.01516627241,214,-0.01432208437,214,3.554431915,214,4.39838171,
213,-0.01533162501,213,-0.01504781842,213,-0.01386209205,213,3.552969217,213,4.571561813,
212,-0.01531793177,212,-0.01533432398,212,-0.01404292975,212,3.52423358,212,4.445467949,
211,-0.01520866621,211,-0.01482622232,211,-0.01391910389,211,3.525593281,211,4.373166561,
210,-0.01501441095,210,-0.0149855027,210,-0.0137044061,210,3.529752254,210,4.48101902,
209,-0.01502911467,209,-0.01461357437,209,-0.01380090974,209,3.512974501,209,4.265847206,
208,-0.01492162701,208,-0.01480455697,208,-0.01321513392,208,3.467360735,208,4.249721527,
207,-0.01453717798,207,-0.01459224895,207,-0.01340592932,207,3.501989603,207,4.253195763,
206,-0.01465126686,206,-0.0141488798,206,-0.01268136594,206,3.463292837,206,4.342041016,
205,-0.01455845591,205,-0.01439721603,205,-0.01283781603,205,3.459906101,205,4.219525337,
204,-0.01445015147,204,-0.0142738428,204,-0.01285666414,204,3.431364059,204,4.156207561,
203,-0.01457497757,203,-0.01458554063,203,-0.01299481187,203,3.442296267,203,4.281229973,
202,-0.01448966097,202,-0.01410242356,202,-0.01300270017,202,3.408349514,202,4.141588688,
201,-0.01643210463,201,-0.01588920131,201,-0.0141492812,201,3.365055323,201,4.079964161,
200,-0.01679142192,200,-0.01633912511,200,-0.01502581406,200,3.332096577,200,4.020462036,

Baseline 100%T,
Baseline 100%T
Collection Time: 6/17/2021 4:20:19 PM
Operator Name  :
Scan Software Version: 4.20(470)
Parameter List :
Instrument                        Cary 300
Instrument Version                12.00
Start (nm)                        800.00
Stop (nm)                         200.00
X Mode                            Nanometers
Y Mode                            Abs
UV-Vis Scan Rate (nm/min)         600.000
UV-Vis Data Interval (nm)         1.000
UV-Vis Ave. Time (sec)            0.100
UV-Vis SBW (nm)                   2.0
Beam Mode                         Double
Signal-to-noise Mode              Off
UV Source                         On
Vis Source                        On
Source Changeover (nm)            380.00
Baseline Correction               On
Baseline Type                     Baseline correction
Baseline File Name
Baseline Std Ref File Name
Cycle Mode                        Off
Comments
Method Log     :
Method Name    :
Date/Time stamp: 6/17/2021 4:19:19 PM
Method Modifications:
Source changeover Changed: 6/17/2021 4:20:03 PM, Old:   350.00, New:   380.00
Baseline Correction Changed: 6/17/2021 4:20:03 PM, Old:0, New:1
End Method Modifications
<SBW (nm)> , 2.00
<Energy> , 144.00
<Current Wavelength> , 200.00

Baseline 100%T,
Baseline 100%T
Collection Time: 6/17/2021 4:22:02 PM
Operator Name  :
Scan Software Version: 4.20(470)
Parameter List :
Instrument                        Cary 300
Instrument Version                12.00
Start (nm)                        800.00
Stop (nm)                         200.00
X Mode                            Nanometers
Y Mode                            Abs
UV-Vis Scan Rate (nm/min)         600.000
UV-Vis Data Interval (nm)         1.000
UV-Vis Ave. Time (sec)            0.100
UV-Vis SBW (nm)                   2.0
Beam Mode                         Double
Signal-to-noise Mode              Off
UV Source                         On
Vis Source                        On
Source Changeover (nm)            380.00
Baseline Correction               On
Baseline Type                     Baseline correction
Baseline File Name
Baseline Std Ref File Name
Cycle Mode                        Off
Comments
Method Log     :
Method Name    :
Date/Time stamp: 6/17/2021 4:19:19 PM
Method Modifications:
Source changeover Changed: 6/17/2021 4:20:03 PM, Old:   350.00, New:   380.00
Baseline Correction Changed: 6/17/2021 4:20:03 PM, Old:0, New:1
End Method Modifications
<SBW (nm)> , 2.00
<Energy> , 144.00
<Current Wavelength> , 200.00

Baseline 100%T,
Baseline 100%T
Collection Time: 6/17/2021 4:25:14 PM
Operator Name  :
Scan Software Version: 4.20(470)
Parameter List :
Instrument                        Cary 300
Instrument Version                12.00
Start (nm)                        800.00
Stop (nm)                         200.00
X Mode                            Nanometers
Y Mode                            Abs
UV-Vis Scan Rate (nm/min)         600.000
UV-Vis Data Interval (nm)         1.000
UV-Vis Ave. Time (sec)            0.100
UV-Vis SBW (nm)                   2.0
Beam Mode                         Double
Signal-to-noise Mode              Off
UV Source                         On
Vis Source                        On
Source Changeover (nm)            380.00
Baseline Correction               On
Baseline Type                     Baseline correction
Baseline File Name
Baseline Std Ref File Name
Cycle Mode                        Off
Comments
Method Log     :
Method Name    :
Date/Time stamp: 6/17/2021 4:19:19 PM
Method Modifications:
Source changeover Changed: 6/17/2021 4:20:03 PM, Old:   350.00, New:   380.00
Baseline Correction Changed: 6/17/2021 4:20:03 PM, Old:0, New:1
End Method Modifications
<SBW (nm)> , 2.00
<Energy> , 144.00
<Current Wavelength> , 200.00

sample1,
sample1
Collection Time: 6/17/2021 4:29:09 PM
Operator Name  :
Scan Software Version: 4.20(470)
Parameter List :
Instrument                        Cary 300
Instrument Version                12.00
Start (nm)                        800.00
Stop (nm)                         200.00
X Mode                            Nanometers
Y Mode                            Abs
UV-Vis Scan Rate (nm/min)         600.000
UV-Vis Data Interval (nm)         1.000
UV-Vis Ave. Time (sec)            0.100
UV-Vis SBW (nm)                   2.0
Beam Mode                         Double
Signal-to-noise Mode              Off
UV Source                         On
Vis Source                        On
Source Changeover (nm)            380.00
Baseline Correction               On
Baseline Type                     Baseline correction
Baseline File Name
Baseline Std Ref File Name
Cycle Mode                        Off
Comments
Method Log     :
Method Name    :
Date/Time stamp: 6/17/2021 4:19:19 PM
Method Modifications:
Source changeover Changed: 6/17/2021 4:20:03 PM, Old:   350.00, New:   380.00
Baseline Correction Changed: 6/17/2021 4:20:03 PM, Old:0, New:1
End Method Modifications
<SBW (nm)> , 2.00
<Energy> , 144.00
<Current Wavelength> , 200.00

sample 5 with P b 10mM 50UL,
sample 5 with P b 10mM 50UL
Collection Time: 6/17/2021 4:33:25 PM
Operator Name  :
Scan Software Version: 4.20(470)
Parameter List :
Instrument                        Cary 300
Instrument Version                12.00
Start (nm)                        800.00
Stop (nm)                         200.00
X Mode                            Nanometers
Y Mode                            Abs
UV-Vis Scan Rate (nm/min)         600.000
UV-Vis Data Interval (nm)         1.000
UV-Vis Ave. Time (sec)            0.100
UV-Vis SBW (nm)                   2.0
Beam Mode                         Double
Signal-to-noise Mode              Off
UV Source                         On
Vis Source                        On
Source Changeover (nm)            380.00
Baseline Correction               On
Baseline Type                     Baseline correction
Baseline File Name
Baseline Std Ref File Name
Cycle Mode                        Off
Comments
Method Log     :
Method Name    :
Date/Time stamp: 6/17/2021 4:19:19 PM
Method Modifications:
Source changeover Changed: 6/17/2021 4:20:03 PM, Old:   350.00, New:   380.00
Baseline Correction Changed: 6/17/2021 4:20:03 PM, Old:0, New:1
End Method Modifications
<SBW (nm)> , 2.00
<Energy> , 144.00
<Current Wavelength> , 200.00

