PE UV       SUBTECH     SPECTRUM    ASCII       PEDS        4.00        
   -1
lead only.Sample.asc
22/09/23
15:25:59.00
22/09/23
15:25:59.00
IIST Trivandrum

200.000000
1
Lambda 1050+
1060L2202081
PerkinElmer UV WinLab 7.2.0.193 / 2.02.11 Lambda 900 UV/VIS/NIR, May 23 2018 11:23:04

0
0
3350/servo 860.8/2
0
0
UV/VIS
1
1
1
RBeamAtt,SBeamAtt,uv/vis/nir detector
0
0
0
0
Program
 
0
3350/0.2 860.8/0.2
0
0
0
 
 
 
0
 
860.8
319.2
860.8
Front
100
 
S:100 R:100
 
0
0
0
 
0
 
 
 
0
 
 
0
0
0
0
0
 
 
 
 
0
0


0
0

0

#HDR
-1
-1
#GR
nm
A
1.0
0.0
800.000000
-1.000000
601
8
10.000000
0.025164
#DATA
800.000000	0.025319
799.000000	0.025329
798.000000	0.025348
797.000000	0.025288
796.000000	0.025312
795.000000	0.025220
794.000000	0.025244
793.000000	0.025460
792.000000	0.025422
791.000000	0.025172
790.000000	0.025309
789.000000	0.025305
788.000000	0.025186
787.000000	0.025340
786.000000	0.025305
785.000000	0.025164
784.000000	0.025280
783.000000	0.025231
782.000000	0.025242
781.000000	0.025241
780.000000	0.025250
779.000000	0.025264
778.000000	0.025318
777.000000	0.025263
776.000000	0.025448
775.000000	0.025378
774.000000	0.025452
773.000000	0.025372
772.000000	0.025296
771.000000	0.025304
770.000000	0.025292
769.000000	0.025475
768.000000	0.025508
767.000000	0.025494
766.000000	0.025405
765.000000	0.025420
764.000000	0.025432
763.000000	0.025383
762.000000	0.025445
761.000000	0.025372
760.000000	0.025570
759.000000	0.025555
758.000000	0.025499
757.000000	0.025488
756.000000	0.025610
755.000000	0.025592
754.000000	0.025598
753.000000	0.025556
752.000000	0.025536
751.000000	0.025531
750.000000	0.025664
749.000000	0.025691
748.000000	0.025628
747.000000	0.025643
746.000000	0.025692
745.000000	0.025658
744.000000	0.025710
743.000000	0.025702
742.000000	0.025690
741.000000	0.025685
740.000000	0.025707
739.000000	0.025659
738.000000	0.025697
737.000000	0.025676
736.000000	0.025720
735.000000	0.025759
734.000000	0.025748
733.000000	0.025713
732.000000	0.025710
731.000000	0.025649
730.000000	0.025739
729.000000	0.025640
728.000000	0.025691
727.000000	0.025768
726.000000	0.025685
725.000000	0.025643
724.000000	0.025675
723.000000	0.025694
722.000000	0.025675
721.000000	0.025619
720.000000	0.025643
719.000000	0.025744
718.000000	0.025669
717.000000	0.025623
716.000000	0.025735
715.000000	0.025803
714.000000	0.025793
713.000000	0.025747
712.000000	0.025743
711.000000	0.025711
710.000000	0.025670
709.000000	0.025734
708.000000	0.025705
707.000000	0.025730
706.000000	0.025756
705.000000	0.025654
704.000000	0.025717
703.000000	0.025810
702.000000	0.025791
701.000000	0.025761
700.000000	0.025821
699.000000	0.025785
698.000000	0.025793
697.000000	0.025822
696.000000	0.025809
695.000000	0.025800
694.000000	0.025855
693.000000	0.025895
692.000000	0.025850
691.000000	0.025838
690.000000	0.025799
689.000000	0.025807
688.000000	0.025849
687.000000	0.025886
686.000000	0.025842
685.000000	0.025833
684.000000	0.025862
683.000000	0.025869
682.000000	0.025897
681.000000	0.025945
680.000000	0.025926
679.000000	0.025975
678.000000	0.025937
677.000000	0.025886
676.000000	0.025971
675.000000	0.025989
674.000000	0.025962
673.000000	0.025961
672.000000	0.025972
671.000000	0.025951
670.000000	0.025963
669.000000	0.026015
668.000000	0.026082
667.000000	0.026120
666.000000	0.026120
665.000000	0.026158
664.000000	0.026142
663.000000	0.026130
662.000000	0.026144
661.000000	0.026164
660.000000	0.026180
659.000000	0.026215
658.000000	0.026210
657.000000	0.026222
656.000000	0.026194
655.000000	0.026218
654.000000	0.026293
653.000000	0.026280
652.000000	0.026313
651.000000	0.026384
650.000000	0.026403
649.000000	0.026398
648.000000	0.026403
647.000000	0.026395
646.000000	0.026430
645.000000	0.026428
644.000000	0.026465
643.000000	0.026491
642.000000	0.026524
641.000000	0.026556
640.000000	0.026587
639.000000	0.026593
638.000000	0.026548
637.000000	0.026577
636.000000	0.026627
635.000000	0.026693
634.000000	0.026734
633.000000	0.026734
632.000000	0.026713
631.000000	0.026729
630.000000	0.026762
629.000000	0.026788
628.000000	0.026829
627.000000	0.026832
626.000000	0.026842
625.000000	0.026886
624.000000	0.026895
623.000000	0.026889
622.000000	0.026905
621.000000	0.026942
620.000000	0.026943
619.000000	0.026988
618.000000	0.027021
617.000000	0.027007
616.000000	0.027045
615.000000	0.027136
614.000000	0.027107
613.000000	0.027176
612.000000	0.027197
611.000000	0.027189
610.000000	0.027193
609.000000	0.027206
608.000000	0.027318
607.000000	0.027301
606.000000	0.027325
605.000000	0.027339
604.000000	0.027359
603.000000	0.027461
602.000000	0.027487
601.000000	0.027478
600.000000	0.027481
599.000000	0.027525
598.000000	0.027468
597.000000	0.027564
596.000000	0.027585
595.000000	0.027586
594.000000	0.027653
593.000000	0.027737
592.000000	0.027749
591.000000	0.027752
590.000000	0.027818
589.000000	0.027852
588.000000	0.027839
587.000000	0.027946
586.000000	0.027994
585.000000	0.027993
584.000000	0.028048
583.000000	0.028037
582.000000	0.028093
581.000000	0.028172
580.000000	0.028137
579.000000	0.028179
578.000000	0.028174
577.000000	0.028219
576.000000	0.028272
575.000000	0.028323
574.000000	0.028350
573.000000	0.028405
572.000000	0.028348
571.000000	0.028421
570.000000	0.028455
569.000000	0.028518
568.000000	0.028610
567.000000	0.028622
566.000000	0.028655
565.000000	0.028641
564.000000	0.028696
563.000000	0.028781
562.000000	0.028790
561.000000	0.028862
560.000000	0.028890
559.000000	0.028945
558.000000	0.028943
557.000000	0.028962
556.000000	0.028997
555.000000	0.029035
554.000000	0.029102
553.000000	0.029083
552.000000	0.029154
551.000000	0.029228
550.000000	0.029246
549.000000	0.029234
548.000000	0.029232
547.000000	0.029279
546.000000	0.029368
545.000000	0.029395
544.000000	0.029424
543.000000	0.029459
542.000000	0.029534
541.000000	0.029606
540.000000	0.029542
539.000000	0.029559
538.000000	0.029640
537.000000	0.029644
536.000000	0.029690
535.000000	0.029648
534.000000	0.029662
533.000000	0.029724
532.000000	0.029685
531.000000	0.029801
530.000000	0.029842
529.000000	0.029839
528.000000	0.029837
527.000000	0.029879
526.000000	0.029894
525.000000	0.029868
524.000000	0.029932
523.000000	0.029931
522.000000	0.029939
521.000000	0.029891
520.000000	0.029983
519.000000	0.029966
518.000000	0.029998
517.000000	0.030055
516.000000	0.030055
515.000000	0.030101
514.000000	0.030107
513.000000	0.030176
512.000000	0.030281
511.000000	0.030315
510.000000	0.030329
509.000000	0.030420
508.000000	0.030435
507.000000	0.030500
506.000000	0.030532
505.000000	0.030638
504.000000	0.030716
503.000000	0.030819
502.000000	0.031012
501.000000	0.031082
500.000000	0.031164
499.000000	0.031336
498.000000	0.031451
497.000000	0.031478
496.000000	0.031714
495.000000	0.031748
494.000000	0.031817
493.000000	0.031750
492.000000	0.031783
491.000000	0.031913
490.000000	0.031996
489.000000	0.032003
488.000000	0.032139
487.000000	0.032267
486.000000	0.032400
485.000000	0.032562
484.000000	0.032668
483.000000	0.032779
482.000000	0.032907
481.000000	0.033044
480.000000	0.033010
479.000000	0.032925
478.000000	0.032934
477.000000	0.032902
476.000000	0.032934
475.000000	0.032889
474.000000	0.032881
473.000000	0.032955
472.000000	0.032981
471.000000	0.033005
470.000000	0.033085
469.000000	0.033159
468.000000	0.033238
467.000000	0.033285
466.000000	0.033344
465.000000	0.033437
464.000000	0.033543
463.000000	0.033618
462.000000	0.033746
461.000000	0.033858
460.000000	0.033970
459.000000	0.034075
458.000000	0.034238
457.000000	0.034352
456.000000	0.034417
455.000000	0.034605
454.000000	0.034780
453.000000	0.034895
452.000000	0.035037
451.000000	0.035148
450.000000	0.035274
449.000000	0.035446
448.000000	0.035602
447.000000	0.035781
446.000000	0.036030
445.000000	0.036140
444.000000	0.036300
443.000000	0.036539
442.000000	0.036768
441.000000	0.036982
440.000000	0.037184
439.000000	0.037343
438.000000	0.037506
437.000000	0.037722
436.000000	0.037969
435.000000	0.038248
434.000000	0.038441
433.000000	0.038628
432.000000	0.038808
431.000000	0.038988
430.000000	0.039232
429.000000	0.039487
428.000000	0.039742
427.000000	0.040008
426.000000	0.040244
425.000000	0.040487
424.000000	0.040719
423.000000	0.040946
422.000000	0.041198
421.000000	0.041411
420.000000	0.041626
419.000000	0.041874
418.000000	0.042133
417.000000	0.042407
416.000000	0.042721
415.000000	0.042981
414.000000	0.043256
413.000000	0.043625
412.000000	0.043936
411.000000	0.044218
410.000000	0.044558
409.000000	0.044956
408.000000	0.045375
407.000000	0.045672
406.000000	0.045992
405.000000	0.046357
404.000000	0.046650
403.000000	0.046991
402.000000	0.047390
401.000000	0.047759
400.000000	0.048098
399.000000	0.048501
398.000000	0.048877
397.000000	0.049210
396.000000	0.049591
395.000000	0.050019
394.000000	0.050474
393.000000	0.050934
392.000000	0.051320
391.000000	0.051691
390.000000	0.052051
389.000000	0.052479
388.000000	0.053037
387.000000	0.053485
386.000000	0.053929
385.000000	0.054332
384.000000	0.054679
383.000000	0.055129
382.000000	0.055558
381.000000	0.056020
380.000000	0.056450
379.000000	0.057173
378.000000	0.057799
377.000000	0.058296
376.000000	0.058775
375.000000	0.059074
374.000000	0.059469
373.000000	0.059851
372.000000	0.060198
371.000000	0.060551
370.000000	0.061081
369.000000	0.061562
368.000000	0.062009
367.000000	0.062470
366.000000	0.062836
365.000000	0.063116
364.000000	0.063639
363.000000	0.063955
362.000000	0.064365
361.000000	0.064826
360.000000	0.065160
359.000000	0.065668
358.000000	0.066190
357.000000	0.066587
356.000000	0.066859
355.000000	0.067189
354.000000	0.067627
353.000000	0.068107
352.000000	0.068469
351.000000	0.068789
350.000000	0.069320
349.000000	0.069757
348.000000	0.070254
347.000000	0.070546
346.000000	0.071009
345.000000	0.071475
344.000000	0.071913
343.000000	0.072274
342.000000	0.072809
341.000000	0.073144
340.000000	0.073800
339.000000	0.074203
338.000000	0.074676
337.000000	0.075258
336.000000	0.075798
335.000000	0.076273
334.000000	0.076710
333.000000	0.077322
332.000000	0.077969
331.000000	0.078616
330.000000	0.079284
329.000000	0.079925
328.000000	0.080915
327.000000	0.081769
326.000000	0.082412
325.000000	0.083383
324.000000	0.084505
323.000000	0.085450
322.000000	0.086412
321.000000	0.087445
320.000000	0.088421
319.000000	0.088545
318.000000	0.089702
317.000000	0.090647
316.000000	0.091727
315.000000	0.092616
314.000000	0.093668
313.000000	0.094353
312.000000	0.095106
311.000000	0.095939
310.000000	0.096638
309.000000	0.097239
308.000000	0.097797
307.000000	0.098425
306.000000	0.098814
305.000000	0.099262
304.000000	0.099585
303.000000	0.099819
302.000000	0.100132
301.000000	0.100178
300.000000	0.100396
299.000000	0.100482
298.000000	0.100452
297.000000	0.100533
296.000000	0.100289
295.000000	0.100283
294.000000	0.100154
293.000000	0.100125
292.000000	0.099869
291.000000	0.099808
290.000000	0.099577
289.000000	0.099612
288.000000	0.099388
287.000000	0.099148
286.000000	0.099053
285.000000	0.098942
284.000000	0.098870
283.000000	0.098829
282.000000	0.098849
281.000000	0.098723
280.000000	0.098721
279.000000	0.098770
278.000000	0.098899
277.000000	0.098841
276.000000	0.098909
275.000000	0.099385
274.000000	0.099603
273.000000	0.099726
272.000000	0.099895
271.000000	0.100065
270.000000	0.100202
269.000000	0.100307
268.000000	0.100322
267.000000	0.100750
266.000000	0.101487
265.000000	0.102162
264.000000	0.102735
263.000000	0.103297
262.000000	0.103882
261.000000	0.104544
260.000000	0.105516
259.000000	0.106751
258.000000	0.108193
257.000000	0.109771
256.000000	0.111459
255.000000	0.113456
254.000000	0.115967
253.000000	0.119059
252.000000	0.122584
251.000000	0.126924
250.000000	0.132115
249.000000	0.138521
248.000000	0.146287
247.000000	0.155916
246.000000	0.167761
245.000000	0.182511
244.000000	0.200792
243.000000	0.223525
242.000000	0.251735
241.000000	0.286662
240.000000	0.329691
239.000000	0.382931
238.000000	0.448338
237.000000	0.528320
236.000000	0.625648
235.000000	0.743488
234.000000	0.886300
233.000000	1.059237
232.000000	1.266071
231.000000	1.510032
230.000000	1.798938
229.000000	2.137740
228.000000	2.528308
227.000000	2.985307
226.000000	3.549914
225.000000	4.264695
224.000000	5.526447
223.000000	10.000000
222.000000	5.155421
221.000000	4.355690
220.000000	4.326046
219.000000	4.655147
218.000000	4.478810
217.000000	4.280939
216.000000	4.157557
215.000000	4.115153
214.000000	4.046482
213.000000	4.032179
212.000000	4.061324
211.000000	4.092221
210.000000	4.155884
209.000000	4.035083
208.000000	4.101238
207.000000	4.068094
206.000000	4.140088
205.000000	4.139249
204.000000	4.045191
203.000000	4.002171
202.000000	3.920352
201.000000	3.848873
200.000000	3.831462
